Seasonal Ice Zone Reconnaissance Survey (SIZRS)                      
Office of Naval Research (ONR) Grant N00014-12-1-0236                
US National Oceanic and Atmospheric Administration Flight 31 May 2018
                                                                     
SIZRS 2018 Mission 1 (AXCTD drop 5)             NOAA Twin Otter N56RF
                     Arctic Ocean = Beaufort Sea                     
71 deg 55.8 min North _ 150 deg 49.8 min West     2018-06-01/0207 UTC
                                                                     
  Airborne Expendable Conductivity-Temperature-Depth (AXCTD) Probe   
            ( http://www.tsk-jp.com/tska/pdf/AXCTD.pdf )             
                 T.S.K. AXCTD serial number 15126162                 
                                                            
     Depth     Pres      Temp      Cond    Salinity   Sigma 
      (m)     (dbar)    (degC)     (S/m)     (psu)    -theta
#
     0.720     0.727    -0.179    2.2158    26.160    20.980
     0.730     0.737    -0.637    2.2099    26.481    21.248
     0.750     0.758    -0.958    2.2025    26.666    21.403
     0.780     0.788    -1.206    2.2232    27.164    21.809
     0.820     0.828    -1.357    2.2217    27.282    21.906
     0.880     0.889    -1.444    2.2276    27.441    22.036
     0.940     0.950    -1.487    2.2703    28.057    22.536
     1.000     1.010    -1.520    2.2806    28.228    22.675
     1.080     1.091    -1.541    2.2983    28.488    22.886
     1.150     1.162    -1.563    2.3159    28.748    23.097
     1.230     1.243    -1.563    2.3263    28.889    23.212
     1.320     1.334    -1.574    2.3366    29.040    23.334
     1.410     1.425    -1.574    2.3498    29.220    23.480
     1.500     1.515    -1.574    2.3572    29.321    23.562
     1.600     1.616    -1.574    2.3631    29.401    23.627
     1.690     1.707    -1.585    2.3704    29.511    23.717
     1.790     1.808    -1.585    2.3734    29.552    23.750
     1.890     1.909    -1.585    2.3763    29.592    23.782
     1.990     2.011    -1.585    2.3793    29.633    23.815
     2.090     2.112    -1.585    2.3808    29.653    23.832
     2.200     2.223    -1.596    2.3822    29.683    23.856
     2.300     2.324    -1.596    2.3837    29.703    23.873
     2.410     2.435    -1.596    2.3852    29.724    23.890
     2.510     2.536    -1.596    2.3866    29.743    23.905
     2.620     2.647    -1.596    2.3866    29.743    23.905
     2.730     2.758    -1.596    2.3896    29.784    23.938
     2.830     2.859    -1.596    2.3896    29.784    23.938
     2.940     2.970    -1.596    2.3911    29.804    23.955
     3.050     3.081    -1.596    2.3911    29.804    23.955
     3.160     3.193    -1.585    2.3925    29.812    23.961
     3.270     3.304    -1.596    2.3925    29.823    23.970
     3.380     3.415    -1.585    2.3925    29.812    23.961
     3.480     3.516    -1.596    2.3925    29.823    23.970
     3.590     3.627    -1.596    2.3940    29.843    23.987
     3.700     3.738    -1.596    2.3940    29.843    23.987
     3.810     3.849    -1.596    2.3940    29.843    23.987
     3.920     3.960    -1.585    2.3940    29.832    23.977
     4.030     4.072    -1.585    2.3955    29.853    23.994
     4.140     4.183    -1.596    2.3955    29.864    24.003
     4.250     4.294    -1.585    2.3955    29.852    23.994
     4.360     4.405    -1.585    2.3970    29.873    24.010
     4.470     4.516    -1.585    2.3970    29.873    24.010
     4.580     4.627    -1.585    2.3970    29.873    24.010
     4.690     4.738    -1.596    2.3955    29.863    24.003
     4.800     4.850    -1.596    2.3955    29.863    24.003
     4.910     4.961    -1.596    2.3970    29.884    24.019
     5.020     5.072    -1.596    2.3970    29.884    24.019
     5.130     5.183    -1.596    2.3970    29.883    24.019
     5.240     5.294    -1.596    2.3970    29.883    24.019
     5.350     5.405    -1.596    2.3970    29.883    24.019
     5.460     5.516    -1.596    2.3970    29.883    24.019
     5.580     5.638    -1.596    2.3970    29.883    24.019
     5.690     5.749    -1.596    2.3970    29.883    24.019
     5.800     5.860    -1.607    2.3970    29.894    24.028
     5.910     5.971    -1.596    2.3970    29.883    24.019
     6.020     6.082    -1.596    2.3970    29.883    24.019
     6.130     6.193    -1.596    2.3984    29.902    24.034
     6.240     6.305    -1.596    2.3984    29.902    24.034
     6.350     6.416    -1.607    2.3984    29.913    24.043
     6.460     6.527    -1.607    2.3984    29.913    24.043
     6.570     6.638    -1.607    2.3970    29.894    24.028
     6.680     6.749    -1.607    2.3984    29.913    24.043
     6.790     6.860    -1.607    2.3984    29.913    24.043
     6.900     6.971    -1.607    2.3984    29.913    24.043
     7.010     7.083    -1.607    2.3984    29.913    24.043
     7.120     7.194    -1.607    2.3984    29.913    24.043
     7.230     7.305    -1.607    2.3984    29.912    24.043
     7.340     7.416    -1.607    2.3984    29.912    24.043
     7.450     7.527    -1.607    2.3984    29.912    24.043
     7.560     7.638    -1.607    2.3984    29.912    24.043
     7.670     7.749    -1.607    2.3984    29.912    24.043
     7.780     7.861    -1.607    2.3984    29.912    24.043
     7.890     7.972    -1.607    2.3984    29.912    24.043
     8.000     8.083    -1.607    2.3984    29.912    24.043
     8.110     8.194    -1.607    2.3999    29.932    24.059
     8.220     8.305    -1.607    2.3999    29.932    24.059
     8.330     8.416    -1.607    2.3999    29.932    24.059
     8.440     8.527    -1.607    2.3999    29.932    24.059
     8.560     8.649    -1.607    2.3999    29.932    24.059
     8.670     8.760    -1.607    2.3999    29.932    24.059
     8.780     8.871    -1.607    2.3999    29.932    24.059
     8.890     8.982    -1.607    2.3999    29.932    24.059
     9.000     9.093    -1.607    2.3999    29.932    24.059
     9.110     9.204    -1.607    2.3999    29.932    24.059
     9.220     9.315    -1.607    2.3999    29.932    24.059
     9.330     9.427    -1.607    2.3999    29.932    24.059
     9.440     9.538    -1.607    2.3999    29.932    24.059
     9.550     9.649    -1.607    2.3999    29.932    24.058
     9.660     9.760    -1.607    2.3999    29.932    24.058
     9.770     9.871    -1.607    2.3999    29.932    24.058
     9.880     9.982    -1.607    2.3999    29.931    24.058
     9.990    10.093    -1.607    2.4014    29.952    24.075
    10.100    10.205    -1.607    2.3999    29.931    24.058
    10.210    10.316    -1.607    2.4014    29.952    24.075
    10.320    10.427    -1.607    2.4014    29.952    24.075
    10.430    10.538    -1.607    2.4014    29.952    24.075
    10.540    10.649    -1.607    2.4014    29.952    24.075
    10.650    10.760    -1.607    2.4014    29.952    24.075
    10.760    10.871    -1.607    2.4014    29.951    24.075
    10.870    10.983    -1.607    2.4014    29.951    24.074
    10.980    11.094    -1.607    2.4014    29.951    24.074
    11.090    11.205    -1.607    2.4014    29.951    24.074
    11.200    11.316    -1.607    2.4014    29.951    24.074
    11.310    11.427    -1.607    2.4014    29.951    24.074
    11.430    11.548    -1.607    2.4014    29.951    24.074
    11.540    11.660    -1.607    2.4014    29.951    24.074
    11.650    11.771    -1.607    2.4014    29.951    24.074
    11.760    11.882    -1.607    2.4014    29.951    24.074
    11.870    11.993    -1.607    2.4014    29.951    24.074
    11.980    12.104    -1.607    2.4014    29.951    24.074
    12.090    12.215    -1.607    2.4014    29.951    24.074
    12.200    12.326    -1.607    2.4014    29.951    24.074
    12.310    12.438    -1.607    2.4014    29.951    24.074
    12.420    12.549    -1.607    2.4014    29.950    24.074
    12.530    12.660    -1.607    2.4014    29.950    24.074
    12.640    12.771    -1.607    2.4028    29.969    24.089
    12.750    12.882    -1.607    2.4014    29.950    24.074
    12.860    12.993    -1.607    2.4028    29.969    24.089
    12.970    13.104    -1.607    2.4014    29.950    24.073
    13.080    13.216    -1.607    2.4028    29.969    24.089
    13.190    13.327    -1.607    2.4028    29.969    24.089
    13.300    13.438    -1.607    2.4028    29.969    24.089
    13.410    13.549    -1.607    2.4028    29.969    24.089
    13.520    13.660    -1.607    2.4028    29.969    24.089
    13.630    13.771    -1.607    2.4028    29.969    24.089
    13.740    13.882    -1.607    2.4028    29.969    24.089
    13.850    13.994    -1.607    2.4028    29.969    24.089
    13.960    14.105    -1.607    2.4028    29.969    24.089
    14.070    14.216    -1.607    2.4028    29.969    24.089
    14.180    14.327    -1.607    2.4028    29.969    24.088
    14.290    14.438    -1.607    2.4028    29.969    24.088
    14.400    14.549    -1.607    2.4028    29.968    24.088
    14.520    14.671    -1.607    2.4028    29.968    24.088
    14.630    14.782    -1.607    2.4028    29.968    24.088
    14.740    14.893    -1.607    2.4028    29.968    24.088
    14.850    15.004    -1.607    2.4028    29.968    24.088
    14.960    15.115    -1.607    2.4028    29.968    24.088
    15.070    15.226    -1.607    2.4028    29.968    24.088
    15.180    15.337    -1.607    2.4028    29.968    24.088
    15.290    15.449    -1.607    2.4028    29.968    24.088
    15.400    15.560    -1.607    2.4028    29.968    24.088
    15.510    15.671    -1.607    2.4028    29.968    24.088
    15.620    15.782    -1.607    2.4028    29.968    24.088
    15.730    15.893    -1.607    2.4028    29.968    24.088
    15.840    16.004    -1.607    2.4043    29.988    24.104
    15.950    16.115    -1.607    2.4043    29.988    24.104
    16.060    16.227    -1.607    2.4043    29.988    24.104
    16.170    16.338    -1.607    2.4043    29.988    24.104
    16.280    16.449    -1.607    2.4043    29.988    24.104
    16.390    16.560    -1.607    2.4043    29.988    24.104
    16.500    16.671    -1.607    2.4028    29.967    24.087
    16.610    16.782    -1.607    2.4043    29.988    24.104
    16.720    16.893    -1.607    2.4043    29.988    24.104
    16.830    17.005    -1.607    2.4043    29.988    24.104
    16.940    17.116    -1.607    2.4043    29.988    24.104
    17.050    17.227    -1.607    2.4043    29.987    24.104
    17.160    17.338    -1.607    2.4043    29.987    24.104
    17.270    17.449    -1.607    2.4043    29.987    24.104
    17.380    17.560    -1.607    2.4043    29.987    24.104
    17.490    17.672    -1.607    2.4043    29.987    24.104
    17.600    17.783    -1.607    2.4043    29.987    24.104
    17.720    17.904    -1.607    2.4043    29.987    24.103
    17.830    18.015    -1.607    2.4043    29.987    24.103
    17.940    18.126    -1.607    2.4043    29.987    24.103
    18.050    18.237    -1.607    2.4043    29.987    24.103
    18.160    18.349    -1.607    2.4043    29.987    24.103
    18.270    18.460    -1.607    2.4043    29.987    24.103
    18.380    18.571    -1.607    2.4043    29.987    24.103
    18.490    18.682    -1.607    2.4043    29.987    24.103
    18.600    18.793    -1.607    2.4043    29.987    24.103
    18.710    18.904    -1.607    2.4043    29.986    24.103
    18.820    19.015    -1.607    2.4043    29.986    24.103
    18.930    19.127    -1.607    2.4043    29.986    24.103
    19.040    19.238    -1.607    2.4043    29.986    24.103
    19.150    19.349    -1.607    2.4043    29.986    24.103
    19.260    19.460    -1.607    2.4043    29.986    24.103
    19.370    19.571    -1.607    2.4043    29.986    24.103
    19.480    19.682    -1.607    2.4043    29.986    24.103
    19.590    19.793    -1.607    2.4043    29.986    24.103
    19.700    19.905    -1.607    2.4043    29.986    24.103
    19.810    20.016    -1.607    2.4058    30.006    24.119
    19.920    20.127    -1.607    2.4058    30.006    24.119
    20.030    20.238    -1.607    2.4043    29.986    24.102
    20.140    20.349    -1.607    2.4043    29.986    24.102
    20.250    20.460    -1.607    2.4058    30.006    24.119
    20.360    20.572    -1.607    2.4043    29.986    24.102
    20.470    20.683    -1.607    2.4058    30.006    24.119
    20.580    20.794    -1.607    2.4058    30.006    24.119
    20.690    20.905    -1.607    2.4043    29.985    24.102
    20.800    21.016    -1.607    2.4058    30.006    24.119
    20.910    21.127    -1.607    2.4058    30.006    24.119
    21.020    21.238    -1.607    2.4058    30.006    24.119
    21.130    21.350    -1.607    2.4058    30.006    24.119
    21.250    21.471    -1.617    2.4058    30.016    24.127
    21.360    21.582    -1.617    2.4043    29.995    24.110
    21.470    21.693    -1.617    2.4058    30.016    24.127
    21.580    21.804    -1.617    2.4043    29.995    24.110
    21.690    21.915    -1.617    2.4058    30.015    24.127
    21.800    22.027    -1.617    2.4058    30.015    24.127
    21.910    22.138    -1.617    2.4058    30.015    24.126
    22.020    22.249    -1.617    2.4043    29.995    24.110
    22.130    22.360    -1.617    2.4043    29.995    24.110
    22.240    22.471    -1.617    2.4043    29.995    24.110
    22.350    22.582    -1.617    2.4043    29.994    24.110
    22.460    22.693    -1.617    2.4058    30.015    24.126
    22.570    22.805    -1.617    2.4043    29.994    24.110
    22.680    22.916    -1.617    2.4058    30.015    24.126
    22.790    23.027    -1.617    2.4058    30.015    24.126
    22.900    23.138    -1.617    2.4043    29.994    24.109
    23.010    23.249    -1.617    2.4043    29.994    24.109
    23.120    23.360    -1.617    2.4043    29.994    24.109
    23.230    23.471    -1.617    2.4058    30.014    24.126
    23.340    23.583    -1.617    2.4043    29.994    24.109
    23.450    23.694    -1.617    2.4043    29.994    24.109
    23.560    23.805    -1.617    2.4058    30.014    24.126
    23.670    23.916    -1.617    2.4043    29.994    24.109
    23.780    24.027    -1.617    2.4058    30.014    24.126
    23.890    24.138    -1.617    2.4058    30.014    24.126
    24.000    24.250    -1.617    2.4043    29.994    24.109
    24.110    24.361    -1.617    2.4058    30.014    24.125
    24.220    24.472    -1.617    2.4058    30.014    24.125
    24.330    24.583    -1.617    2.4058    30.014    24.125
    24.440    24.694    -1.617    2.4043    29.993    24.109
    24.550    24.805    -1.617    2.4058    30.014    24.125
    24.660    24.916    -1.617    2.4058    30.014    24.125
    24.770    25.028    -1.617    2.4058    30.014    24.125
    24.880    25.139    -1.617    2.4058    30.014    24.125
    24.990    25.250    -1.617    2.4058    30.013    24.125
    25.110    25.371    -1.617    2.4058    30.013    24.125
    25.220    25.482    -1.617    2.4058    30.013    24.125
    25.330    25.593    -1.617    2.4058    30.013    24.125
    25.440    25.705    -1.617    2.4058    30.013    24.125
    25.550    25.816    -1.617    2.4058    30.013    24.125
    25.660    25.927    -1.617    2.4058    30.013    24.125
    25.770    26.038    -1.617    2.4058    30.013    24.125
    25.880    26.149    -1.617    2.4058    30.013    24.125
    25.990    26.260    -1.617    2.4058    30.013    24.125
    26.100    26.371    -1.617    2.4058    30.013    24.125
    26.210    26.483    -1.617    2.4058    30.013    24.124
    26.320    26.594    -1.617    2.4058    30.013    24.124
    26.430    26.705    -1.617    2.4058    30.013    24.124
    26.540    26.816    -1.617    2.4058    30.013    24.124
    26.650    26.927    -1.617    2.4058    30.013    24.124
    26.760    27.038    -1.628    2.4058    30.024    24.133
    26.870    27.150    -1.617    2.4058    30.012    24.124
    26.980    27.261    -1.617    2.4058    30.012    24.124
    27.090    27.372    -1.617    2.4058    30.012    24.124
    27.200    27.483    -1.617    2.4058    30.012    24.124
    27.310    27.594    -1.628    2.4058    30.023    24.133
    27.420    27.705    -1.617    2.4058    30.012    24.124
    27.530    27.816    -1.617    2.4058    30.012    24.124
    27.640    27.928    -1.617    2.4058    30.012    24.124
    27.750    28.039    -1.617    2.4058    30.012    24.124
    27.860    28.150    -1.628    2.4058    30.023    24.133
    27.970    28.261    -1.617    2.4058    30.012    24.124
    28.080    28.372    -1.617    2.4058    30.012    24.124
    28.190    28.483    -1.617    2.4073    30.032    24.140
    28.300    28.595    -1.617    2.4058    30.012    24.123
    28.410    28.706    -1.617    2.4058    30.011    24.123
    28.520    28.817    -1.617    2.4058    30.011    24.123
    28.630    28.928    -1.617    2.4058    30.011    24.123
    28.740    29.039    -1.617    2.4073    30.032    24.140
    28.850    29.150    -1.617    2.4058    30.011    24.123
    28.960    29.261    -1.628    2.4058    30.022    24.132
    29.070    29.373    -1.617    2.4073    30.032    24.140
    29.180    29.484    -1.617    2.4058    30.011    24.123
    29.300    29.605    -1.617    2.4058    30.011    24.123
    29.410    29.716    -1.617    2.4073    30.031    24.140
    29.520    29.827    -1.617    2.4058    30.011    24.123
    29.630    29.938    -1.617    2.4058    30.011    24.123
    29.740    30.050    -1.617    2.4073    30.031    24.139
    29.850    30.161    -1.617    2.4073    30.031    24.139
    29.960    30.272    -1.617    2.4073    30.031    24.139
    30.070    30.383    -1.617    2.4073    30.031    24.139
    30.180    30.494    -1.617    2.4073    30.031    24.139
    30.290    30.605    -1.617    2.4073    30.031    24.139
    30.400    30.717    -1.617    2.4073    30.031    24.139
    30.510    30.828    -1.617    2.4073    30.031    24.139
    30.620    30.939    -1.617    2.4073    30.031    24.139
    30.730    31.050    -1.617    2.4073    30.031    24.139
    30.840    31.161    -1.617    2.4073    30.031    24.139
    30.950    31.272    -1.617    2.4073    30.031    24.139
    31.060    31.383    -1.617    2.4073    30.030    24.139
    31.170    31.495    -1.617    2.4073    30.030    24.139
    31.280    31.606    -1.617    2.4087    30.049    24.154
    31.390    31.717    -1.617    2.4087    30.049    24.154
    31.500    31.828    -1.617    2.4087    30.049    24.154
    31.610    31.939    -1.617    2.4087    30.049    24.154
    31.720    32.050    -1.617    2.4087    30.049    24.154
    31.830    32.162    -1.607    2.4087    30.039    24.146
    31.940    32.273    -1.617    2.4087    30.049    24.154
    32.050    32.384    -1.617    2.4102    30.070    24.171
    32.160    32.495    -1.617    2.4087    30.049    24.154
    32.270    32.606    -1.617    2.4087    30.049    24.154
    32.380    32.717    -1.617    2.4087    30.049    24.154
    32.490    32.828    -1.617    2.4102    30.069    24.170
    32.600    32.940    -1.617    2.4102    30.069    24.170
    32.710    33.051    -1.617    2.4102    30.069    24.170
    32.820    33.162    -1.617    2.4102    30.069    24.170
    32.930    33.273    -1.617    2.4102    30.069    24.170
    33.040    33.384    -1.617    2.4102    30.069    24.170
    33.150    33.495    -1.617    2.4102    30.069    24.170
    33.260    33.607    -1.617    2.4102    30.069    24.170
    33.370    33.718    -1.617    2.4102    30.069    24.170
    33.480    33.829    -1.617    2.4102    30.069    24.170
    33.590    33.940    -1.617    2.4102    30.069    24.170
    33.700    34.051    -1.617    2.4102    30.069    24.170
    33.810    34.162    -1.617    2.4102    30.069    24.170
    33.920    34.274    -1.617    2.4102    30.068    24.170
    34.040    34.395    -1.617    2.4102    30.068    24.170
    34.150    34.506    -1.617    2.4102    30.068    24.170
    34.260    34.617    -1.617    2.4102    30.068    24.170
    34.370    34.728    -1.617    2.4102    30.068    24.169
    34.480    34.839    -1.617    2.4102    30.068    24.169
    34.590    34.951    -1.607    2.4102    30.058    24.161
    34.700    35.062    -1.617    2.4102    30.068    24.169
    34.810    35.173    -1.607    2.4117    30.078    24.178
    34.920    35.284    -1.607    2.4117    30.078    24.178
    35.030    35.395    -1.617    2.4102    30.068    24.169
    35.140    35.506    -1.607    2.4102    30.058    24.161
    35.250    35.617    -1.617    2.4102    30.068    24.169
    35.360    35.729    -1.607    2.4117    30.078    24.177
    35.470    35.840    -1.607    2.4102    30.057    24.161
    35.580    35.951    -1.607    2.4117    30.078    24.177
    35.690    36.062    -1.607    2.4117    30.078    24.177
    35.800    36.173    -1.607    2.4117    30.078    24.177
    35.910    36.284    -1.607    2.4117    30.078    24.177
    36.020    36.396    -1.607    2.4117    30.078    24.177
    36.130    36.507    -1.617    2.4117    30.088    24.185
    36.240    36.618    -1.607    2.4117    30.078    24.177
    36.350    36.729    -1.607    2.4117    30.077    24.177
    36.460    36.840    -1.607    2.4117    30.077    24.177
    36.570    36.951    -1.607    2.4117    30.077    24.177
    36.680    37.063    -1.617    2.4117    30.087    24.185
    36.790    37.174    -1.617    2.4117    30.087    24.185
    36.900    37.285    -1.617    2.4117    30.087    24.185
    37.010    37.396    -1.607    2.4132    30.098    24.193
    37.120    37.507    -1.607    2.4132    30.098    24.193
    37.230    37.618    -1.607    2.4132    30.097    24.193
    37.340    37.730    -1.607    2.4132    30.097    24.193
    37.450    37.841    -1.607    2.4132    30.097    24.193
    37.560    37.952    -1.607    2.4146    30.116    24.208
    37.670    38.063    -1.596    2.4146    30.105    24.199
    37.780    38.174    -1.596    2.4161    30.126    24.216
    37.890    38.285    -1.585    2.4176    30.135    24.223
    38.000    38.396    -1.574    2.4176    30.124    24.214
    38.110    38.508    -1.574    2.4190    30.143    24.229
    38.220    38.619    -1.563    2.4190    30.132    24.220
    38.330    38.730    -1.563    2.4190    30.131    24.220
    38.440    38.841    -1.563    2.4205    30.152    24.237
    38.550    38.952    -1.552    2.4205    30.141    24.227
    38.660    39.063    -1.552    2.4205    30.141    24.227
    38.770    39.175    -1.552    2.4205    30.141    24.227
    38.880    39.286    -1.552    2.4205    30.141    24.227
    38.990    39.397    -1.552    2.4220    30.161    24.244
    39.100    39.508    -1.552    2.4220    30.161    24.244
    39.210    39.619    -1.541    2.4220    30.150    24.234
    39.320    39.730    -1.541    2.4235    30.170    24.251
    39.430    39.842    -1.541    2.4235    30.170    24.251
    39.540    39.953    -1.541    2.4235    30.170    24.251
    39.650    40.064    -1.530    2.4249    30.178    24.257
    39.770    40.185    -1.530    2.4264    30.198    24.274
    39.880    40.296    -1.520    2.4264    30.188    24.265
    39.990    40.407    -1.520    2.4279    30.208    24.282
    40.100    40.519    -1.509    2.4279    30.197    24.272
    40.210    40.630    -1.520    2.4279    30.208    24.282
    40.320    40.741    -1.509    2.4294    30.218    24.289
    40.430    40.852    -1.487    2.4353    30.276    24.336
    40.540    40.963    -1.465    2.4367    30.272    24.333
    40.650    41.074    -1.455    2.4382    30.282    24.341
    40.760    41.186    -1.422    2.4456    30.350    24.395
    40.870    41.297    -1.379    2.4544    30.425    24.455
    40.980    41.408    -1.335    2.4632    30.500    24.515
    41.090    41.519    -1.292    2.4706    30.557    24.560
    41.200    41.630    -1.238    2.4780    30.602    24.595
    41.310    41.741    -1.184    2.4839    30.626    24.614
    41.420    41.852    -1.141    2.4897    30.661    24.641
    41.530    41.964    -1.109    2.4956    30.708    24.678
    41.640    42.075    -1.098    2.4971    30.717    24.685
    41.750    42.186    -1.087    2.4986    30.725    24.692
    41.860    42.297    -1.087    2.4986    30.725    24.692
    41.970    42.408    -1.076    2.5001    30.734    24.699
    42.080    42.519    -1.076    2.5001    30.734    24.699
    42.190    42.631    -1.087    2.5001    30.745    24.708
    42.300    42.742    -1.087    2.5030    30.785    24.740
    42.410    42.853    -1.076    2.5045    30.793    24.747
    42.520    42.964    -1.076    2.5074    30.833    24.779
    42.630    43.075    -1.076    2.5074    30.832    24.778
    42.740    43.186    -1.076    2.5074    30.832    24.778
    42.850    43.298    -1.066    2.5104    30.863    24.803
    42.960    43.409    -1.066    2.5104    30.862    24.803
    43.070    43.520    -1.055    2.5118    30.870    24.808
    43.180    43.631    -1.055    2.5133    30.890    24.825
    43.290    43.742    -1.044    2.5148    30.899    24.832
    43.400    43.853    -1.033    2.5163    30.908    24.838
    43.510    43.965    -1.023    2.5177    30.916    24.845
    43.620    44.076    -1.012    2.5192    30.925    24.852
    43.730    44.187    -1.012    2.5207    30.945    24.868
    43.840    44.298    -1.001    2.5207    30.934    24.859
    43.950    44.409    -1.001    2.5222    30.954    24.875
    44.060    44.520    -0.990    2.5236    30.962    24.881
    44.170    44.632    -0.980    2.5280    31.011    24.920
    44.280    44.743    -0.969    2.5280    30.999    24.911
    44.390    44.854    -0.958    2.5295    31.008    24.917
    44.500    44.965    -0.947    2.5325    31.037    24.941
    44.610    45.076    -0.926    2.5354    31.054    24.954
    44.720    45.187    -0.904    2.5369    31.052    24.951
    44.830    45.298    -0.872    2.5413    31.078    24.971
    44.940    45.410    -0.829    2.5472    31.112    24.998
    45.050    45.521    -0.787    2.5501    31.108    24.993
    45.160    45.632    -0.744    2.5560    31.142    25.020
    45.270    45.743    -0.690    2.5619    31.166    25.037
    45.380    45.854    -0.658    2.5649    31.173    25.042
    45.490    45.965    -0.626    2.5663    31.158    25.029
    45.600    46.077    -0.615    2.5678    31.167    25.036
    45.710    46.188    -0.605    2.5693    31.177    25.043
    45.820    46.299    -0.605    2.5708    31.196    25.059
    45.930    46.410    -0.605    2.5693    31.176    25.043
    46.040    46.521    -0.605    2.5693    31.176    25.043
    46.150    46.632    -0.594    2.5722    31.204    25.065
    46.260    46.744    -0.562    2.5752    31.211    25.069
    46.370    46.855    -0.498    2.5825    31.242    25.092
    46.480    46.966    -0.434    2.5899    31.274    25.116
    46.590    47.077    -0.392    2.5929    31.270    25.112
    46.700    47.188    -0.360    2.5943    31.256    25.099
    46.810    47.299    -0.349    2.5943    31.245    25.089
    46.920    47.411    -0.360    2.5943    31.256    25.099
    47.030    47.522    -0.381    2.5914    31.239    25.086
    47.150    47.643    -0.413    2.5884    31.232    25.081
    47.260    47.754    -0.434    2.5870    31.235    25.085
    47.370    47.865    -0.434    2.5899    31.273    25.116
    47.480    47.976    -0.413    2.5914    31.272    25.113
    47.590    48.088    -0.381    2.5958    31.297    25.133
    47.700    48.199    -0.360    2.5973    31.295    25.130
    47.810    48.310    -0.360    2.5987    31.314    25.145
    47.920    48.421    -0.360    2.5973    31.295    25.130
    48.030    48.532    -0.349    2.5987    31.302    25.136
    48.140    48.643    -0.349    2.5987    31.302    25.136
    48.250    48.755    -0.360    2.5987    31.313    25.145
    48.360    48.866    -0.360    2.5987    31.313    25.145
    48.470    48.977    -0.392    2.5958    31.308    25.142
    48.580    49.088    -0.413    2.5943    31.309    25.144
    48.690    49.199    -0.434    2.5929    31.312    25.147
    48.800    49.310    -0.456    2.5914    31.315    25.150
    48.910    49.422    -0.466    2.5914    31.325    25.159
    49.020    49.533    -0.487    2.5914    31.347    25.177
    49.130    49.644    -0.509    2.5884    31.330    25.164
    49.240    49.755    -0.573    2.5811    31.299    25.141
    49.350    49.866    -0.626    2.5796    31.334    25.171
    49.460    49.977    -0.648    2.5781    31.336    25.174
    49.570    50.089    -0.669    2.5766    31.338    25.176
    49.680    50.200    -0.690    2.5766    31.360    25.194
    49.790    50.311    -0.701    2.5752    31.352    25.188
    49.900    50.422    -0.712    2.5752    31.364    25.198
    50.010    50.533    -0.712    2.5766    31.382    25.213
    50.120    50.644    -0.712    2.5766    31.382    25.213
    50.230    50.756    -0.701    2.5781    31.391    25.220
    50.340    50.867    -0.690    2.5796    31.399    25.226
    50.450    50.978    -0.680    2.5811    31.409    25.234
    50.560    51.089    -0.658    2.5840    31.425    25.246
    50.670    51.200    -0.648    2.5855    31.434    25.253
    50.780    51.311    -0.648    2.5870    31.454    25.269
    50.890    51.423    -0.658    2.5855    31.445    25.262
    51.000    51.534    -0.669    2.5855    31.456    25.271
    51.110    51.645    -0.680    2.5840    31.447    25.265
    51.220    51.756    -0.690    2.5840    31.458    25.273
    51.330    51.867    -0.690    2.5855    31.478    25.290
    51.440    51.978    -0.690    2.5855    31.478    25.290
    51.550    52.090    -0.690    2.5855    31.478    25.290
    51.660    52.201    -0.690    2.5855    31.478    25.290
    51.770    52.312    -0.701    2.5855    31.489    25.299
    51.880    52.423    -0.701    2.5855    31.489    25.299
    51.990    52.534    -0.701    2.5855    31.489    25.299
    52.100    52.645    -0.712    2.5855    31.500    25.309
    52.210    52.757    -0.712    2.5855    31.500    25.309
    52.320    52.868    -0.712    2.5870    31.520    25.325
    52.430    52.979    -0.712    2.5870    31.520    25.325
    52.540    53.090    -0.712    2.5870    31.520    25.325
    52.650    53.201    -0.722    2.5870    31.530    25.333
    52.760    53.312    -0.733    2.5870    31.542    25.343
    52.870    53.424    -0.744    2.5855    31.533    25.336
    52.980    53.535    -0.744    2.5855    31.533    25.336
    53.090    53.646    -0.744    2.5855    31.533    25.336
    53.200    53.757    -0.754    2.5855    31.543    25.345
    53.310    53.868    -0.754    2.5855    31.543    25.345
    53.420    53.979    -0.754    2.5855    31.543    25.345
    53.530    54.091    -0.754    2.5855    31.543    25.345
    53.640    54.202    -0.765    2.5855    31.555    25.354
    53.750    54.313    -0.765    2.5855    31.555    25.354
    53.860    54.424    -0.765    2.5855    31.555    25.354
    53.970    54.535    -0.765    2.5855    31.554    25.354
    54.080    54.646    -0.765    2.5855    31.554    25.354
    54.190    54.758    -0.765    2.5870    31.574    25.370
    54.300    54.869    -0.776    2.5855    31.566    25.364
    54.410    54.980    -0.776    2.5870    31.586    25.380
    54.520    55.091    -0.776    2.5870    31.586    25.380
    54.630    55.202    -0.776    2.5870    31.586    25.380
    54.740    55.313    -0.787    2.5870    31.597    25.389
    54.850    55.425    -0.797    2.5870    31.608    25.398
    54.960    55.536    -0.797    2.5870    31.608    25.398
    55.070    55.647    -0.808    2.5855    31.599    25.391
    55.180    55.758    -0.808    2.5855    31.599    25.391
    55.290    55.869    -0.819    2.5855    31.610    25.401
    55.400    55.980    -0.829    2.5855    31.621    25.410
    55.510    56.092    -0.840    2.5855    31.632    25.419
    55.620    56.203    -0.840    2.5855    31.632    25.419
    55.730    56.314    -0.851    2.5855    31.644    25.429
    55.840    56.425    -0.851    2.5855    31.644    25.429
    55.950    56.536    -0.862    2.5855    31.655    25.439
    56.060    56.647    -0.862    2.5855    31.655    25.439
    56.170    56.759    -0.862    2.5855    31.655    25.439
    56.280    56.870    -0.862    2.5855    31.655    25.438
    56.390    56.981    -0.862    2.5855    31.655    25.438
    56.500    57.092    -0.862    2.5855    31.655    25.438
    56.610    57.203    -0.862    2.5870    31.675    25.455
    56.720    57.314    -0.851    2.5870    31.663    25.445
    56.830    57.426    -0.851    2.5884    31.682    25.460
    56.940    57.537    -0.840    2.5899    31.691    25.467
    57.050    57.648    -0.829    2.5899    31.679    25.457
    57.160    57.759    -0.819    2.5914    31.688    25.464
    57.270    57.870    -0.808    2.5914    31.677    25.455
    57.380    57.981    -0.787    2.5943    31.694    25.468
    57.490    58.093    -0.776    2.5943    31.682    25.458
    57.600    58.204    -0.776    2.5958    31.702    25.474
    57.710    58.315    -0.765    2.5958    31.691    25.464
    57.820    58.426    -0.765    2.5943    31.670    25.448
    57.930    58.537    -0.765    2.5958    31.690    25.464
    58.040    58.648    -0.765    2.5958    31.690    25.464
    58.150    58.760    -0.776    2.5958    31.702    25.474
    58.260    58.871    -0.776    2.5958    31.702    25.474
    58.370    58.982    -0.776    2.5958    31.702    25.474
    58.480    59.093    -0.787    2.5943    31.693    25.467
    58.590    59.204    -0.787    2.5943    31.693    25.467
    58.700    59.315    -0.797    2.5943    31.703    25.476
    58.810    59.427    -0.797    2.5943    31.703    25.476
    58.920    59.538    -0.808    2.5929    31.696    25.470
    59.030    59.649    -0.808    2.5929    31.696    25.470
    59.140    59.760    -0.819    2.5929    31.707    25.480
    59.250    59.871    -0.819    2.5929    31.707    25.480
    59.360    59.982    -0.819    2.5943    31.726    25.495
    59.470    60.094    -0.829    2.5929    31.718    25.488
    59.580    60.205    -0.829    2.5929    31.718    25.488
    59.690    60.316    -0.829    2.5943    31.736    25.504
    59.800    60.427    -0.829    2.5943    31.736    25.504
    59.910    60.538    -0.829    2.5943    31.736    25.503
    60.020    60.649    -0.829    2.5943    31.736    25.503
    60.130    60.761    -0.829    2.5929    31.717    25.488
    60.240    60.872    -0.840    2.5929    31.729    25.498
    60.350    60.983    -0.840    2.5929    31.729    25.498
    60.460    61.094    -0.840    2.5929    31.729    25.498
    60.570    61.205    -0.851    2.5929    31.740    25.507
    60.680    61.316    -0.851    2.5929    31.740    25.507
    60.790    61.428    -0.851    2.5929    31.740    25.507
    60.900    61.539    -0.862    2.5929    31.752    25.517
    61.010    61.650    -0.862    2.5929    31.752    25.517
    61.120    61.761    -0.872    2.5929    31.762    25.526
    61.230    61.872    -0.872    2.5929    31.762    25.526
    61.340    61.984    -0.872    2.5929    31.762    25.526
    61.450    62.095    -0.872    2.5943    31.781    25.541
    61.560    62.206    -0.872    2.5943    31.781    25.541
    61.670    62.317    -0.872    2.5943    31.781    25.541
    61.780    62.428    -0.862    2.5943    31.770    25.532
    61.890    62.539    -0.862    2.5958    31.790    25.548
    62.000    62.651    -0.862    2.5958    31.790    25.548
    62.110    62.762    -0.851    2.5958    31.778    25.538
    62.220    62.873    -0.862    2.5958    31.790    25.548
    62.330    62.984    -0.862    2.5973    31.810    25.564
    62.440    63.095    -0.862    2.5973    31.810    25.564
    62.550    63.206    -0.862    2.5973    31.810    25.564
    62.660    63.318    -0.862    2.5973    31.810    25.564
    62.770    63.429    -0.862    2.5973    31.810    25.564
    62.880    63.540    -0.862    2.5973    31.810    25.564
    62.990    63.651    -0.862    2.5973    31.810    25.564
    63.110    63.772    -0.872    2.5973    31.820    25.573
    63.220    63.884    -0.872    2.5958    31.800    25.556
    63.330    63.995    -0.872    2.5958    31.800    25.556
    63.440    64.106    -0.883    2.5958    31.811    25.566
    63.550    64.217    -0.883    2.5958    31.811    25.566
    63.660    64.328    -0.894    2.5958    31.823    25.576
    63.770    64.439    -0.904    2.5943    31.813    25.568
    63.880    64.551    -0.926    2.5929    31.817    25.572
    63.990    64.662    -0.937    2.5929    31.829    25.582
    64.100    64.773    -0.958    2.5914    31.831    25.584
    64.210    64.884    -0.969    2.5914    31.843    25.594
    64.320    64.995    -0.980    2.5914    31.854    25.604
    64.430    65.106    -0.990    2.5899    31.844    25.596
    64.540    65.218    -0.990    2.5899    31.844    25.596
    64.650    65.329    -0.990    2.5914    31.865    25.612
    64.760    65.440    -0.990    2.5914    31.864    25.612
    64.870    65.551    -0.990    2.5914    31.864    25.612
    64.980    65.662    -1.001    2.5899    31.856    25.605
    65.090    65.773    -1.001    2.5899    31.856    25.605
    65.200    65.885    -1.012    2.5884    31.847    25.599
    65.310    65.996    -1.023    2.5884    31.859    25.608
    65.420    66.107    -1.033    2.5884    31.869    25.617
    65.530    66.218    -1.033    2.5884    31.869    25.617
    65.640    66.329    -1.033    2.5884    31.869    25.617
    65.750    66.440    -1.023    2.5899    31.879    25.625
    65.860    66.552    -1.023    2.5899    31.879    25.625
    65.970    66.663    -1.023    2.5899    31.878    25.625
    66.080    66.774    -1.033    2.5899    31.889    25.633
    66.190    66.885    -1.044    2.5884    31.880    25.627
    66.300    66.996    -1.055    2.5884    31.892    25.636
    66.410    67.108    -1.066    2.5870    31.885    25.631
    66.520    67.219    -1.076    2.5870    31.895    25.640
    66.630    67.330    -1.087    2.5870    31.907    25.649
    66.740    67.441    -1.087    2.5870    31.907    25.649
    66.850    67.552    -1.087    2.5870    31.907    25.649
    66.950    67.653    -1.098    2.5870    31.918    25.659
    67.060    67.764    -1.098    2.5870    31.918    25.659
    67.170    67.876    -1.098    2.5870    31.918    25.659
    67.280    67.987    -1.098    2.5870    31.918    25.659
    67.390    68.098    -1.098    2.5870    31.918    25.659
    67.500    68.209    -1.098    2.5870    31.918    25.659
    67.610    68.320    -1.098    2.5870    31.918    25.659
    67.720    68.432    -1.098    2.5870    31.918    25.659
    67.830    68.543    -1.098    2.5870    31.918    25.659
    67.940    68.654    -1.109    2.5870    31.929    25.668
    68.050    68.765    -1.109    2.5870    31.929    25.668
    68.160    68.876    -1.120    2.5870    31.941    25.678
    68.270    68.987    -1.120    2.5870    31.941    25.678
    68.380    69.099    -1.120    2.5870    31.941    25.678
    68.490    69.210    -1.130    2.5870    31.951    25.687
    68.600    69.321    -1.130    2.5870    31.951    25.687
    68.710    69.432    -1.130    2.5870    31.951    25.687
    68.820    69.543    -1.141    2.5870    31.963    25.696
    68.930    69.654    -1.141    2.5870    31.963    25.696
    69.040    69.766    -1.141    2.5855    31.942    25.680
    69.150    69.877    -1.152    2.5870    31.975    25.706
    69.260    69.988    -1.141    2.5884    31.982    25.712
    69.370    70.099    -1.141    2.5884    31.982    25.712
    69.480    70.210    -1.141    2.5884    31.982    25.711
    69.590    70.322    -1.141    2.5884    31.982    25.711
    69.700    70.433    -1.141    2.5884    31.981    25.711
    69.810    70.544    -1.141    2.5884    31.981    25.711
    69.920    70.655    -1.141    2.5884    31.981    25.711
    70.030    70.766    -1.141    2.5884    31.981    25.711
    70.140    70.877    -1.141    2.5884    31.981    25.711
    70.250    70.989    -1.152    2.5884    31.993    25.721
    70.360    71.100    -1.152    2.5884    31.993    25.721
    70.470    71.211    -1.152    2.5884    31.993    25.721
    70.580    71.322    -1.152    2.5899    32.013    25.737
    70.690    71.433    -1.152    2.5899    32.013    25.737
    70.800    71.544    -1.152    2.5899    32.013    25.737
    70.910    71.656    -1.152    2.5914    32.033    25.754
    71.020    71.767    -1.152    2.5914    32.033    25.754
    71.130    71.878    -1.141    2.5914    32.021    25.744
    71.240    71.989    -1.141    2.5914    32.021    25.744
    71.350    72.100    -1.141    2.5914    32.021    25.744
    71.460    72.212    -1.141    2.5929    32.042    25.760
    71.570    72.323    -1.141    2.5929    32.041    25.760
    71.680    72.434    -1.141    2.5929    32.041    25.760
    71.790    72.545    -1.141    2.5914    32.021    25.743
    71.900    72.656    -1.152    2.5929    32.053    25.770
    72.010    72.767    -1.152    2.5929    32.053    25.770
    72.120    72.879    -1.163    2.5914    32.044    25.763
    72.230    72.990    -1.163    2.5914    32.044    25.763
    72.340    73.101    -1.173    2.5914    32.055    25.772
    72.450    73.212    -1.184    2.5914    32.067    25.782
    72.560    73.323    -1.195    2.5899    32.058    25.775
    72.670    73.434    -1.195    2.5899    32.058    25.775
    72.780    73.546    -1.206    2.5884    32.049    25.768
    72.890    73.657    -1.217    2.5884    32.061    25.778
    73.000    73.768    -1.217    2.5884    32.061    25.778
    73.110    73.879    -1.227    2.5884    32.071    25.787
    73.220    73.990    -1.227    2.5884    32.071    25.787
    73.330    74.102    -1.227    2.5884    32.071    25.787
    73.440    74.213    -1.227    2.5884    32.071    25.786
    73.550    74.324    -1.217    2.5899    32.081    25.794
    73.660    74.435    -1.217    2.5914    32.101    25.811
    73.770    74.546    -1.206    2.5914    32.089    25.801
    73.880    74.657    -1.195    2.5929    32.098    25.807
    73.990    74.769    -1.184    2.5929    32.086    25.797
    74.100    74.880    -1.184    2.5943    32.105    25.813
    74.210    74.991    -1.173    2.5943    32.093    25.803
    74.320    75.102    -1.173    2.5943    32.093    25.803
    74.430    75.213    -1.173    2.5958    32.113    25.819
    74.540    75.324    -1.173    2.5958    32.113    25.819
    74.650    75.436    -1.173    2.5958    32.113    25.819
    74.760    75.547    -1.173    2.5958    32.113    25.819
    74.870    75.658    -1.173    2.5958    32.113    25.819
    74.980    75.769    -1.173    2.5958    32.113    25.819
    75.090    75.880    -1.173    2.5958    32.113    25.819
    75.200    75.992    -1.173    2.5958    32.113    25.819
    75.310    76.103    -1.173    2.5958    32.113    25.819
    75.420    76.214    -1.184    2.5958    32.125    25.829
    75.530    76.325    -1.184    2.5958    32.125    25.829
    75.640    76.436    -1.195    2.5943    32.116    25.822
    75.750    76.547    -1.206    2.5943    32.128    25.832
    75.860    76.659    -1.206    2.5943    32.128    25.832
    75.970    76.770    -1.217    2.5943    32.139    25.841
    76.080    76.881    -1.217    2.5943    32.139    25.841
    76.190    76.992    -1.217    2.5929    32.120    25.826
    76.300    77.103    -1.217    2.5929    32.120    25.826
    76.410    77.215    -1.217    2.5929    32.120    25.826
    76.520    77.326    -1.227    2.5929    32.131    25.835
    76.630    77.437    -1.227    2.5929    32.131    25.835
    76.740    77.548    -1.227    2.5929    32.130    25.835
    76.850    77.659    -1.238    2.5929    32.142    25.844
    76.960    77.770    -1.238    2.5929    32.142    25.844
    77.070    77.882    -1.238    2.5929    32.142    25.844
    77.180    77.993    -1.238    2.5929    32.142    25.844
    77.290    78.104    -1.238    2.5929    32.142    25.844
    77.400    78.215    -1.238    2.5943    32.161    25.860
    77.510    78.326    -1.238    2.5943    32.161    25.860
    77.620    78.437    -1.238    2.5943    32.161    25.860
    77.730    78.549    -1.238    2.5943    32.161    25.859
    77.840    78.660    -1.238    2.5943    32.161    25.859
    77.950    78.771    -1.238    2.5943    32.161    25.859
    78.060    78.882    -1.238    2.5943    32.161    25.859
    78.170    78.993    -1.238    2.5943    32.161    25.859
    78.280    79.105    -1.238    2.5943    32.160    25.859
    78.390    79.216    -1.249    2.5943    32.172    25.869
    78.500    79.327    -1.249    2.5943    32.172    25.869
    78.610    79.438    -1.249    2.5943    32.172    25.869
    78.720    79.549    -1.249    2.5943    32.172    25.869
    78.830    79.660    -1.249    2.5943    32.172    25.869
    78.940    79.772    -1.249    2.5943    32.172    25.869
    79.050    79.883    -1.260    2.5943    32.184    25.879
    79.160    79.994    -1.249    2.5943    32.172    25.869
    79.270    80.105    -1.260    2.5943    32.183    25.878
    79.380    80.216    -1.260    2.5943    32.183    25.878
    79.490    80.328    -1.260    2.5943    32.183    25.878
    79.600    80.439    -1.260    2.5943    32.183    25.878
    79.710    80.550    -1.260    2.5943    32.183    25.878
    79.820    80.661    -1.260    2.5943    32.183    25.878
    79.930    80.772    -1.260    2.5943    32.183    25.878
    80.040    80.883    -1.260    2.5943    32.183    25.878
    80.150    80.995    -1.260    2.5943    32.183    25.878
    80.260    81.106    -1.260    2.5943    32.183    25.878
    80.370    81.217    -1.260    2.5943    32.183    25.878
    80.480    81.328    -1.260    2.5943    32.183    25.878
    80.590    81.439    -1.271    2.5943    32.195    25.888
    80.700    81.551    -1.271    2.5943    32.194    25.888
    80.810    81.662    -1.271    2.5943    32.194    25.888
    80.920    81.773    -1.281    2.5943    32.205    25.897
    81.030    81.884    -1.281    2.5943    32.205    25.897
    81.140    81.995    -1.281    2.5943    32.205    25.896
    81.250    82.106    -1.281    2.5943    32.205    25.896
    81.360    82.218    -1.281    2.5943    32.205    25.896
    81.470    82.329    -1.281    2.5943    32.205    25.896
    81.580    82.440    -1.281    2.5943    32.205    25.896
    81.690    82.551    -1.292    2.5943    32.216    25.906
    81.800    82.662    -1.292    2.5943    32.216    25.906
    81.910    82.774    -1.292    2.5943    32.216    25.906
    82.020    82.885    -1.292    2.5943    32.216    25.906
    82.130    82.996    -1.303    2.5943    32.228    25.916
    82.240    83.107    -1.303    2.5943    32.228    25.916
    82.350    83.218    -1.303    2.5943    32.228    25.916
    82.460    83.329    -1.303    2.5943    32.228    25.916
    82.570    83.441    -1.303    2.5943    32.228    25.916
    82.680    83.552    -1.303    2.5943    32.228    25.916
    82.790    83.663    -1.303    2.5943    32.228    25.915
    82.900    83.774    -1.303    2.5943    32.228    25.915
    83.000    83.875    -1.303    2.5943    32.228    25.915
    83.110    83.986    -1.303    2.5958    32.248    25.932
    83.220    84.098    -1.303    2.5943    32.227    25.915
    83.330    84.209    -1.303    2.5958    32.248    25.932
    83.440    84.320    -1.303    2.5958    32.248    25.932
    83.550    84.431    -1.303    2.5958    32.248    25.932
    83.660    84.542    -1.303    2.5958    32.248    25.932
    83.770    84.654    -1.303    2.5958    32.248    25.932
    83.880    84.765    -1.303    2.5958    32.247    25.932
    83.990    84.876    -1.314    2.5958    32.259    25.941
    84.100    84.987    -1.314    2.5958    32.259    25.941
    84.210    85.098    -1.314    2.5958    32.259    25.941
    84.320    85.209    -1.314    2.5958    32.259    25.941
    84.430    85.321    -1.314    2.5958    32.259    25.941
    84.540    85.432    -1.325    2.5943    32.250    25.934
    84.650    85.543    -1.325    2.5943    32.250    25.934
    84.760    85.654    -1.325    2.5943    32.250    25.934
    84.870    85.765    -1.325    2.5943    32.250    25.934
    84.980    85.877    -1.325    2.5943    32.250    25.934
    85.090    85.988    -1.335    2.5943    32.261    25.943
    85.200    86.099    -1.325    2.5943    32.250    25.934
    85.310    86.210    -1.335    2.5943    32.261    25.943
    85.420    86.321    -1.325    2.5943    32.250    25.934
    85.530    86.432    -1.335    2.5943    32.261    25.943
    85.640    86.544    -1.335    2.5943    32.260    25.943
    85.750    86.655    -1.335    2.5943    32.260    25.943
    85.860    86.766    -1.335    2.5958    32.281    25.959
    85.970    86.877    -1.335    2.5958    32.281    25.959
    86.080    86.988    -1.335    2.5958    32.281    25.959
    86.190    87.100    -1.335    2.5958    32.281    25.959
    86.300    87.211    -1.335    2.5958    32.281    25.959
    86.410    87.322    -1.335    2.5958    32.280    25.959
    86.520    87.433    -1.335    2.5958    32.280    25.959
    86.630    87.544    -1.335    2.5943    32.260    25.942
    86.740    87.655    -1.346    2.5958    32.292    25.969
    86.850    87.767    -1.346    2.5958    32.292    25.969
    86.960    87.878    -1.346    2.5943    32.272    25.952
    87.070    87.989    -1.346    2.5958    32.292    25.969
    87.180    88.100    -1.346    2.5958    32.292    25.969
    87.290    88.211    -1.346    2.5958    32.292    25.969
    87.400    88.323    -1.346    2.5958    32.292    25.969
    87.510    88.434    -1.346    2.5943    32.271    25.952
    87.620    88.545    -1.346    2.5958    32.292    25.969
    87.730    88.656    -1.346    2.5958    32.292    25.968
    87.840    88.767    -1.357    2.5958    32.303    25.978
    87.950    88.879    -1.357    2.5958    32.303    25.978
    88.060    88.990    -1.357    2.5958    32.303    25.978
    88.170    89.101    -1.357    2.5958    32.303    25.978
    88.280    89.212    -1.357    2.5958    32.303    25.978
    88.390    89.323    -1.368    2.5973    32.336    26.005
    88.500    89.434    -1.357    2.5958    32.303    25.978
    88.610    89.546    -1.368    2.5958    32.315    25.988
    88.720    89.657    -1.357    2.5973    32.323    25.995
    88.830    89.768    -1.368    2.5958    32.315    25.988
    88.940    89.879    -1.368    2.5958    32.315    25.988
    89.050    89.990    -1.368    2.5958    32.315    25.988
    89.160    90.102    -1.368    2.5958    32.314    25.988
    89.270    90.213    -1.368    2.5973    32.335    26.004
    89.380    90.324    -1.368    2.5958    32.314    25.988
    89.490    90.435    -1.368    2.5973    32.335    26.004
    89.600    90.546    -1.368    2.5973    32.335    26.004
    89.710    90.657    -1.368    2.5958    32.314    25.987
    89.820    90.769    -1.368    2.5973    32.335    26.004
    89.930    90.880    -1.368    2.5973    32.335    26.004
    90.040    90.991    -1.368    2.5958    32.314    25.987
    90.150    91.102    -1.368    2.5973    32.334    26.004
    90.250    91.203    -1.379    2.5958    32.326    25.997
    90.360    91.315    -1.379    2.5973    32.346    26.014
    90.470    91.426    -1.379    2.5973    32.346    26.014
    90.580    91.537    -1.379    2.5973    32.346    26.014
    90.690    91.648    -1.379    2.5973    32.346    26.013
    90.800    91.759    -1.379    2.5958    32.325    25.997
    90.910    91.870    -1.379    2.5973    32.346    26.013
    91.020    91.982    -1.379    2.5973    32.346    26.013
    91.130    92.093    -1.390    2.5973    32.358    26.023
    91.240    92.204    -1.379    2.5973    32.346    26.013
    91.350    92.315    -1.390    2.5973    32.358    26.023
    91.460    92.426    -1.379    2.5973    32.346    26.013
    91.570    92.538    -1.379    2.5973    32.345    26.013
    91.680    92.649    -1.390    2.5973    32.357    26.023
    91.790    92.760    -1.390    2.5973    32.357    26.023
    91.900    92.871    -1.390    2.5973    32.357    26.023
    92.010    92.982    -1.390    2.5973    32.357    26.023
    92.120    93.094    -1.390    2.5973    32.357    26.023
    92.230    93.205    -1.390    2.5973    32.357    26.023
    92.340    93.316    -1.390    2.5973    32.357    26.023
    92.450    93.427    -1.390    2.5973    32.357    26.023
    92.560    93.538    -1.390    2.5973    32.357    26.023
    92.670    93.649    -1.390    2.5973    32.357    26.022
    92.780    93.761    -1.390    2.5973    32.357    26.022
    92.890    93.872    -1.390    2.5973    32.357    26.022
    93.000    93.983    -1.390    2.5973    32.357    26.022
    93.110    94.094    -1.390    2.5973    32.356    26.022
    93.220    94.205    -1.390    2.5987    32.376    26.038
    93.330    94.317    -1.390    2.5987    32.376    26.038
    93.440    94.428    -1.390    2.5987    32.375    26.038
    93.550    94.539    -1.400    2.5973    32.367    26.031
    93.660    94.650    -1.400    2.5987    32.386    26.047
    93.770    94.761    -1.400    2.5987    32.386    26.047
    93.880    94.873    -1.400    2.5987    32.386    26.047
    93.990    94.984    -1.400    2.5987    32.386    26.046
    94.100    95.095    -1.400    2.5987    32.386    26.046
    94.210    95.206    -1.400    2.5987    32.386    26.046
    94.320    95.317    -1.400    2.5987    32.386    26.046
    94.430    95.428    -1.400    2.5987    32.386    26.046
    94.540    95.540    -1.400    2.5987    32.386    26.046
    94.650    95.651    -1.400    2.5987    32.386    26.046
    94.760    95.762    -1.400    2.5987    32.385    26.046
    94.870    95.873    -1.400    2.5987    32.385    26.046
    94.980    95.984    -1.400    2.6002    32.406    26.063
    95.090    96.096    -1.400    2.6002    32.406    26.063
    95.200    96.207    -1.411    2.5987    32.397    26.056
    95.310    96.318    -1.411    2.5987    32.397    26.056
    95.420    96.429    -1.400    2.6002    32.406    26.062
    95.530    96.540    -1.411    2.6002    32.418    26.072
    95.640    96.652    -1.411    2.6002    32.417    26.072
    95.750    96.763    -1.411    2.6002    32.417    26.072
    95.860    96.874    -1.411    2.6002    32.417    26.072
    95.960    96.975    -1.411    2.6002    32.417    26.072
    96.070    97.086    -1.411    2.6002    32.417    26.072
    96.180    97.197    -1.411    2.6002    32.417    26.072
    96.290    97.309    -1.411    2.6002    32.417    26.072
    96.400    97.420    -1.411    2.6002    32.417    26.072
    96.510    97.531    -1.411    2.6002    32.417    26.072
    96.620    97.642    -1.411    2.6002    32.417    26.072
    96.730    97.753    -1.411    2.6002    32.417    26.072
    96.840    97.865    -1.411    2.6002    32.417    26.072
    96.950    97.976    -1.411    2.6002    32.417    26.072
    97.060    98.087    -1.411    2.6002    32.417    26.072
    97.170    98.198    -1.411    2.6002    32.417    26.072
    97.280    98.309    -1.411    2.6002    32.416    26.071
    97.390    98.420    -1.411    2.6002    32.416    26.071
    97.500    98.532    -1.411    2.6002    32.416    26.071
    97.610    98.643    -1.411    2.6002    32.416    26.071
    97.720    98.754    -1.422    2.6017    32.449    26.098
    97.830    98.865    -1.411    2.6017    32.437    26.088
    97.940    98.976    -1.422    2.6002    32.428    26.081
    98.050    99.088    -1.422    2.6017    32.448    26.098
    98.160    99.199    -1.422    2.6017    32.448    26.098
    98.270    99.310    -1.422    2.6017    32.448    26.098
    98.380    99.421    -1.422    2.6017    32.448    26.098
    98.490    99.532    -1.422    2.6017    32.448    26.098
    98.600    99.644    -1.422    2.6017    32.448    26.098
    98.710    99.755    -1.422    2.6017    32.448    26.097
    98.820    99.866    -1.422    2.6017    32.448    26.097
    98.930    99.977    -1.422    2.6017    32.448    26.097
    99.040   100.088    -1.422    2.6017    32.448    26.097
    99.150   100.200    -1.422    2.6017    32.448    26.097
    99.260   100.311    -1.422    2.6017    32.448    26.097
    99.370   100.422    -1.422    2.6017    32.448    26.097
    99.480   100.533    -1.422    2.6017    32.448    26.097
    99.590   100.644    -1.422    2.6017    32.448    26.097
    99.700   100.755    -1.422    2.6017    32.447    26.097
    99.810   100.867    -1.422    2.6017    32.447    26.097
    99.920   100.978    -1.433    2.6017    32.459    26.107
   100.030   101.089    -1.422    2.6017    32.447    26.097
   100.140   101.200    -1.433    2.6017    32.459    26.107
   100.250   101.311    -1.422    2.6032    32.468    26.113
   100.360   101.423    -1.433    2.6017    32.459    26.107
   100.470   101.534    -1.433    2.6017    32.459    26.107
   100.580   101.645    -1.433    2.6017    32.459    26.107
   100.680   101.746    -1.433    2.6017    32.459    26.106
   100.790   101.857    -1.433    2.6032    32.479    26.123
   100.900   101.968    -1.433    2.6017    32.459    26.106
   101.010   102.080    -1.433    2.6017    32.459    26.106
   101.120   102.191    -1.433    2.6032    32.479    26.123
   101.230   102.302    -1.433    2.6032    32.479    26.123
   101.340   102.413    -1.433    2.6032    32.479    26.123
   101.450   102.524    -1.433    2.6032    32.479    26.123
   101.560   102.636    -1.433    2.6032    32.479    26.123
   101.670   102.747    -1.433    2.6032    32.479    26.123
   101.780   102.858    -1.433    2.6032    32.479    26.123
   101.890   102.969    -1.433    2.6032    32.479    26.123
   102.000   103.080    -1.433    2.6032    32.479    26.123
   102.110   103.192    -1.433    2.6032    32.479    26.122
   102.220   103.303    -1.433    2.6032    32.478    26.122
   102.330   103.414    -1.433    2.6032    32.478    26.122
   102.440   103.525    -1.433    2.6032    32.478    26.122
   102.550   103.636    -1.433    2.6032    32.478    26.122
   102.660   103.748    -1.444    2.6032    32.490    26.132
   102.770   103.859    -1.433    2.6032    32.478    26.122
   102.880   103.970    -1.444    2.6032    32.490    26.132
   102.990   104.081    -1.433    2.6032    32.478    26.122
   103.100   104.192    -1.433    2.6032    32.478    26.122
   103.210   104.304    -1.444    2.6032    32.490    26.132
   103.320   104.415    -1.433    2.6032    32.478    26.122
   103.430   104.526    -1.444    2.6032    32.490    26.132
   103.540   104.637    -1.444    2.6032    32.490    26.132
   103.650   104.748    -1.444    2.6032    32.490    26.132
   103.760   104.859    -1.444    2.6032    32.490    26.132
   103.870   104.971    -1.444    2.6032    32.489    26.132
   103.980   105.082    -1.444    2.6032    32.489    26.132
   104.090   105.193    -1.444    2.6032    32.489    26.131
   104.200   105.304    -1.444    2.6032    32.489    26.131
   104.310   105.415    -1.444    2.6032    32.489    26.131
   104.420   105.527    -1.444    2.6046    32.508    26.147
   104.530   105.638    -1.444    2.6032    32.489    26.131
   104.640   105.749    -1.444    2.6046    32.508    26.147
   104.750   105.860    -1.444    2.6046    32.508    26.147
   104.850   105.961    -1.444    2.6046    32.508    26.147
   104.960   106.073    -1.444    2.6046    32.508    26.147
   105.070   106.184    -1.444    2.6046    32.508    26.147
   105.180   106.295    -1.444    2.6046    32.508    26.147
   105.290   106.406    -1.444    2.6046    32.508    26.146
   105.400   106.517    -1.444    2.6046    32.508    26.146
   105.510   106.628    -1.444    2.6046    32.508    26.146
   105.620   106.740    -1.444    2.6046    32.508    26.146
   105.730   106.851    -1.444    2.6046    32.508    26.146
   105.840   106.962    -1.444    2.6046    32.507    26.146
   105.950   107.073    -1.444    2.6046    32.507    26.146
   106.060   107.184    -1.444    2.6046    32.507    26.146
   106.170   107.296    -1.444    2.6046    32.507    26.146
   106.280   107.407    -1.444    2.6046    32.507    26.146
   106.390   107.518    -1.444    2.6046    32.507    26.146
   106.500   107.629    -1.444    2.6046    32.507    26.146
   106.610   107.740    -1.444    2.6061    32.528    26.163
   106.720   107.852    -1.444    2.6046    32.507    26.146
   106.830   107.963    -1.444    2.6061    32.527    26.162
   106.940   108.074    -1.444    2.6061    32.527    26.162
   107.050   108.185    -1.444    2.6061    32.527    26.162
   107.160   108.296    -1.444    2.6061    32.527    26.162
   107.270   108.408    -1.444    2.6061    32.527    26.162
   107.380   108.519    -1.444    2.6061    32.527    26.162
   107.490   108.630    -1.444    2.6061    32.527    26.162
   107.600   108.741    -1.444    2.6061    32.527    26.162
   107.710   108.852    -1.444    2.6061    32.527    26.162
   107.820   108.964    -1.455    2.6061    32.539    26.172
   107.930   109.075    -1.455    2.6061    32.539    26.172
   108.040   109.186    -1.455    2.6061    32.539    26.172
   108.150   109.297    -1.465    2.6046    32.529    26.164
   108.260   109.408    -1.465    2.6046    32.529    26.164
   108.370   109.520    -1.465    2.6046    32.529    26.164
   108.480   109.631    -1.476    2.6046    32.541    26.174
   108.590   109.742    -1.476    2.6046    32.541    26.174
   108.690   109.843    -1.476    2.6046    32.541    26.174
   108.800   109.954    -1.476    2.6046    32.541    26.174
   108.910   110.065    -1.476    2.6046    32.540    26.174
   109.020   110.177    -1.476    2.6046    32.540    26.174
   109.130   110.288    -1.476    2.6046    32.540    26.174
   109.240   110.399    -1.487    2.6046    32.552    26.184
   109.350   110.510    -1.487    2.6046    32.552    26.184
   109.460   110.621    -1.487    2.6046    32.552    26.184
   109.570   110.733    -1.487    2.6046    32.552    26.184
   109.680   110.844    -1.487    2.6046    32.552    26.183
   109.790   110.955    -1.487    2.6046    32.552    26.183
   109.900   111.066    -1.487    2.6061    32.572    26.200
   110.010   111.177    -1.487    2.6046    32.552    26.183
   110.120   111.289    -1.487    2.6046    32.552    26.183
   110.230   111.400    -1.487    2.6046    32.552    26.183
   110.340   111.511    -1.498    2.6046    32.564    26.193
   110.450   111.622    -1.487    2.6046    32.552    26.183
   110.560   111.733    -1.498    2.6046    32.563    26.193
   110.670   111.845    -1.498    2.6046    32.563    26.193
   110.780   111.956    -1.498    2.6046    32.563    26.193
   110.890   112.067    -1.498    2.6046    32.563    26.193
   111.000   112.178    -1.498    2.6061    32.584    26.210
   111.110   112.289    -1.498    2.6061    32.584    26.210
   111.220   112.401    -1.498    2.6046    32.563    26.193
   111.330   112.512    -1.498    2.6061    32.584    26.209
   111.440   112.623    -1.498    2.6061    32.584    26.209
   111.550   112.734    -1.498    2.6061    32.584    26.209
   111.660   112.845    -1.498    2.6061    32.583    26.209
   111.770   112.957    -1.498    2.6061    32.583    26.209
   111.880   113.068    -1.498    2.6061    32.583    26.209
   111.990   113.179    -1.498    2.6061    32.583    26.209
   112.100   113.290    -1.498    2.6061    32.583    26.209
   112.200   113.391    -1.498    2.6061    32.583    26.209
   112.310   113.502    -1.498    2.6076    32.604    26.226
   112.420   113.614    -1.498    2.6076    32.604    26.226
   112.530   113.725    -1.498    2.6076    32.604    26.226
   112.640   113.836    -1.498    2.6076    32.603    26.226
   112.750   113.947    -1.498    2.6076    32.603    26.225
   112.860   114.058    -1.498    2.6076    32.603    26.225
   112.970   114.170    -1.498    2.6076    32.603    26.225
   113.080   114.281    -1.498    2.6076    32.603    26.225
   113.190   114.392    -1.498    2.6076    32.603    26.225
   113.300   114.503    -1.498    2.6076    32.603    26.225
   113.410   114.614    -1.498    2.6076    32.603    26.225
   113.520   114.726    -1.498    2.6076    32.603    26.225
   113.630   114.837    -1.498    2.6076    32.603    26.225
   113.740   114.948    -1.498    2.6076    32.603    26.225
   113.850   115.059    -1.509    2.6076    32.615    26.235
   113.960   115.170    -1.498    2.6076    32.603    26.225
   114.070   115.282    -1.509    2.6076    32.615    26.235
   114.180   115.393    -1.509    2.6076    32.615    26.235
   114.290   115.504    -1.509    2.6076    32.614    26.235
   114.400   115.615    -1.520    2.6076    32.626    26.245
   114.510   115.726    -1.509    2.6076    32.614    26.235
   114.620   115.838    -1.509    2.6076    32.614    26.235
   114.730   115.949    -1.509    2.6091    32.635    26.251
   114.840   116.060    -1.509    2.6091    32.635    26.251
   114.950   116.171    -1.509    2.6091    32.635    26.251
   115.060   116.282    -1.498    2.6091    32.623    26.241
   115.170   116.394    -1.498    2.6091    32.623    26.241
   115.280   116.505    -1.498    2.6091    32.622    26.241
   115.380   116.606    -1.498    2.6091    32.622    26.241
   115.490   116.717    -1.498    2.6105    32.642    26.256
   115.600   116.828    -1.498    2.6105    32.642    26.256
   115.710   116.940    -1.498    2.6105    32.641    26.256
   115.820   117.051    -1.498    2.6105    32.641    26.256
   115.930   117.162    -1.487    2.6105    32.629    26.246
   116.040   117.273    -1.487    2.6120    32.650    26.263
   116.150   117.384    -1.487    2.6105    32.629    26.246
   116.260   117.496    -1.487    2.6105    32.629    26.246
   116.370   117.607    -1.498    2.6105    32.641    26.256
   116.480   117.718    -1.487    2.6105    32.629    26.246
   116.590   117.829    -1.498    2.6105    32.641    26.256
   116.700   117.940    -1.498    2.6105    32.641    26.256
   116.810   118.052    -1.498    2.6105    32.641    26.256
   116.920   118.163    -1.498    2.6105    32.641    26.256
   117.030   118.274    -1.498    2.6105    32.641    26.256
   117.140   118.385    -1.498    2.6105    32.641    26.256
   117.250   118.496    -1.498    2.6105    32.641    26.256
   117.360   118.608    -1.498    2.6105    32.640    26.256
   117.470   118.719    -1.498    2.6105    32.640    26.255
   117.580   118.830    -1.498    2.6105    32.640    26.255
   117.690   118.941    -1.498    2.6105    32.640    26.255
   117.800   119.052    -1.498    2.6120    32.661    26.272
   117.910   119.164    -1.498    2.6120    32.661    26.272
   118.020   119.275    -1.498    2.6120    32.661    26.272
   118.130   119.386    -1.498    2.6120    32.661    26.272
   118.240   119.497    -1.498    2.6120    32.661    26.272
   118.350   119.608    -1.498    2.6120    32.660    26.272
   118.450   119.709    -1.498    2.6120    32.660    26.272
   118.560   119.821    -1.498    2.6120    32.660    26.272
   118.670   119.932    -1.498    2.6120    32.660    26.272
   118.780   120.043    -1.498    2.6120    32.660    26.272
   118.890   120.154    -1.509    2.6120    32.672    26.282
   119.000   120.265    -1.509    2.6120    32.672    26.282
   119.110   120.377    -1.509    2.6120    32.672    26.281
   119.220   120.488    -1.509    2.6105    32.651    26.265
   119.330   120.599    -1.520    2.6105    32.663    26.275
   119.440   120.710    -1.520    2.6120    32.684    26.291
   119.550   120.821    -1.509    2.6120    32.672    26.281
   119.660   120.933    -1.509    2.6120    32.672    26.281
   119.770   121.044    -1.509    2.6120    32.672    26.281
   119.880   121.155    -1.509    2.6120    32.672    26.281
   119.990   121.266    -1.509    2.6120    32.672    26.281
   120.100   121.377    -1.509    2.6120    32.671    26.281
   120.210   121.489    -1.509    2.6120    32.671    26.281
   120.320   121.600    -1.509    2.6120    32.671    26.281
   120.430   121.711    -1.509    2.6120    32.671    26.281
   120.540   121.822    -1.509    2.6120    32.671    26.281
   120.650   121.934    -1.509    2.6135    32.692    26.297
   120.760   122.045    -1.498    2.6135    32.680    26.287
   120.870   122.156    -1.498    2.6135    32.680    26.287
   120.980   122.267    -1.498    2.6135    32.679    26.287
   121.090   122.378    -1.498    2.6149    32.699    26.303
   121.200   122.490    -1.487    2.6149    32.687    26.293
   121.300   122.591    -1.498    2.6149    32.699    26.303
   121.410   122.702    -1.498    2.6149    32.698    26.303
   121.520   122.813    -1.498    2.6135    32.679    26.287
   121.630   122.924    -1.520    2.6120    32.683    26.290
   121.740   123.035    -1.530    2.6105    32.673    26.283
   121.850   123.147    -1.552    2.6105    32.697    26.303
   121.960   123.258    -1.552    2.6091    32.678    26.287
   122.070   123.369    -1.563    2.6091    32.690    26.297
   122.180   123.480    -1.563    2.6091    32.689    26.297
   122.290   123.591    -1.563    2.6091    32.689    26.297
   122.400   123.703    -1.563    2.6091    32.689    26.297
   122.510   123.814    -1.563    2.6091    32.689    26.297
   122.620   123.925    -1.563    2.6091    32.689    26.297
   122.730   124.036    -1.563    2.6091    32.689    26.297
   122.840   124.147    -1.563    2.6091    32.689    26.297
   122.950   124.259    -1.563    2.6091    32.689    26.297
   123.060   124.370    -1.552    2.6105    32.696    26.302
   123.170   124.481    -1.541    2.6120    32.705    26.309
   123.280   124.592    -1.530    2.6135    32.713    26.315
   123.390   124.703    -1.520    2.6135    32.702    26.306
   123.500   124.815    -1.530    2.6120    32.692    26.299
   123.610   124.926    -1.541    2.6120    32.704    26.309
   123.720   125.037    -1.541    2.6105    32.684    26.292
   123.830   125.148    -1.552    2.6105    32.696    26.302
   123.940   125.260    -1.552    2.6120    32.716    26.318
   124.040   125.361    -1.552    2.6120    32.716    26.318
   124.150   125.472    -1.541    2.6120    32.704    26.308
   124.260   125.583    -1.541    2.6120    32.704    26.308
   124.370   125.694    -1.530    2.6135    32.712    26.315
   124.480   125.805    -1.530    2.6135    32.712    26.315
   124.590   125.917    -1.530    2.6135    32.712    26.315
   124.700   126.028    -1.520    2.6135    32.701    26.306
   124.810   126.139    -1.530    2.6135    32.712    26.315
   124.920   126.250    -1.530    2.6135    32.712    26.315
   125.030   126.361    -1.530    2.6135    32.712    26.315
   125.140   126.473    -1.530    2.6135    32.712    26.314
   125.250   126.584    -1.530    2.6135    32.712    26.314
   125.360   126.695    -1.530    2.6149    32.731    26.330
   125.470   126.806    -1.520    2.6149    32.720    26.321
   125.580   126.917    -1.520    2.6149    32.720    26.321
   125.690   127.029    -1.530    2.6135    32.712    26.314
   125.800   127.140    -1.530    2.6135    32.712    26.314
   125.910   127.251    -1.530    2.6135    32.712    26.314
   126.020   127.362    -1.541    2.6149    32.743    26.340
   126.130   127.474    -1.541    2.6135    32.723    26.324
   126.240   127.585    -1.541    2.6135    32.723    26.324
   126.350   127.696    -1.541    2.6135    32.723    26.324
   126.460   127.807    -1.552    2.6120    32.715    26.317
   126.570   127.918    -1.552    2.6135    32.735    26.334
   126.670   128.019    -1.552    2.6135    32.735    26.334
   126.780   128.131    -1.552    2.6135    32.735    26.334
   126.890   128.242    -1.541    2.6135    32.723    26.324
   127.000   128.353    -1.541    2.6135    32.723    26.324
   127.110   128.464    -1.541    2.6149    32.742    26.339
   127.220   128.575    -1.541    2.6149    32.742    26.339
   127.330   128.687    -1.541    2.6149    32.742    26.339
   127.440   128.798    -1.530    2.6164    32.751    26.346
   127.550   128.909    -1.520    2.6179    32.760    26.353
   127.660   129.020    -1.509    2.6179    32.748    26.343
   127.770   129.132    -1.509    2.6164    32.727    26.326
   127.880   129.243    -1.520    2.6164    32.739    26.336
   127.990   129.354    -1.520    2.6164    32.739    26.336
   128.100   129.465    -1.520    2.6164    32.739    26.336
   128.210   129.576    -1.520    2.6164    32.739    26.336
   128.320   129.688    -1.520    2.6164    32.739    26.336
   128.430   129.799    -1.530    2.6179    32.771    26.362
   128.540   129.910    -1.520    2.6179    32.760    26.353
   128.650   130.021    -1.520    2.6179    32.759    26.353
   128.760   130.132    -1.520    2.6179    32.759    26.353
   128.870   130.244    -1.520    2.6179    32.759    26.353
   128.980   130.355    -1.509    2.6194    32.768    26.359
   129.090   130.466    -1.509    2.6194    32.768    26.359
   129.190   130.567    -1.509    2.6194    32.768    26.359
   129.300   130.678    -1.509    2.6194    32.768    26.359
   129.410   130.790    -1.509    2.6194    32.768    26.359
   129.520   130.901    -1.509    2.6194    32.767    26.359
   129.630   131.012    -1.509    2.6208    32.787    26.375
   129.740   131.123    -1.509    2.6208    32.787    26.375
   129.850   131.234    -1.509    2.6208    32.787    26.374
   129.960   131.346    -1.509    2.6208    32.786    26.374
   130.070   131.457    -1.509    2.6208    32.786    26.374
   130.180   131.568    -1.509    2.6208    32.786    26.374
   130.290   131.679    -1.509    2.6208    32.786    26.374
   130.400   131.790    -1.509    2.6208    32.786    26.374
   130.510   131.902    -1.509    2.6208    32.786    26.374
   130.620   132.013    -1.509    2.6208    32.786    26.374
   130.730   132.124    -1.509    2.6208    32.786    26.374
   130.840   132.235    -1.509    2.6208    32.786    26.374
   130.950   132.346    -1.509    2.6208    32.786    26.374
   131.060   132.458    -1.498    2.6223    32.794    26.380
   131.170   132.569    -1.498    2.6223    32.794    26.380
   131.280   132.680    -1.498    2.6223    32.794    26.380
   131.390   132.791    -1.498    2.6223    32.794    26.380
   131.500   132.902    -1.498    2.6223    32.794    26.380
   131.600   133.004    -1.498    2.6223    32.794    26.380
   131.710   133.115    -1.498    2.6238    32.815    26.397
   131.820   133.226    -1.498    2.6223    32.794    26.380
   131.930   133.337    -1.498    2.6238    32.814    26.397
   132.040   133.448    -1.498    2.6223    32.794    26.380
   132.150   133.560    -1.498    2.6238    32.814    26.397
   132.260   133.671    -1.498    2.6238    32.814    26.397
   132.370   133.782    -1.498    2.6238    32.814    26.397
   132.480   133.893    -1.498    2.6238    32.814    26.397
   132.590   134.004    -1.487    2.6238    32.802    26.386
   132.700   134.116    -1.498    2.6238    32.814    26.396
   132.810   134.227    -1.498    2.6238    32.814    26.396
   132.920   134.338    -1.498    2.6238    32.814    26.396
   133.030   134.449    -1.498    2.6238    32.814    26.396
   133.140   134.560    -1.498    2.6238    32.814    26.396
   133.250   134.672    -1.487    2.6253    32.822    26.403
   133.360   134.783    -1.487    2.6253    32.822    26.403
   133.470   134.894    -1.487    2.6253    32.822    26.403
   133.580   135.005    -1.487    2.6253    32.822    26.403
   133.690   135.117    -1.487    2.6253    32.822    26.403
   133.800   135.228    -1.487    2.6253    32.822    26.403
   133.900   135.329    -1.487    2.6253    32.822    26.402
   134.010   135.440    -1.487    2.6253    32.822    26.402
   134.120   135.551    -1.487    2.6253    32.822    26.402
   134.230   135.662    -1.487    2.6267    32.841    26.418
   134.340   135.774    -1.487    2.6267    32.841    26.418
   134.450   135.885    -1.487    2.6267    32.841    26.418
   134.560   135.996    -1.487    2.6267    32.841    26.418
   134.670   136.107    -1.487    2.6267    32.841    26.418
   134.780   136.219    -1.487    2.6267    32.840    26.418
   134.890   136.330    -1.487    2.6267    32.840    26.418
   135.000   136.441    -1.487    2.6267    32.840    26.418
   135.110   136.552    -1.487    2.6267    32.840    26.418
   135.220   136.663    -1.487    2.6267    32.840    26.417
   135.330   136.775    -1.487    2.6267    32.840    26.417
   135.440   136.886    -1.487    2.6267    32.840    26.417
   135.550   136.997    -1.487    2.6267    32.840    26.417
   135.660   137.108    -1.487    2.6267    32.840    26.417
   135.770   137.219    -1.487    2.6267    32.840    26.417
   135.880   137.331    -1.487    2.6267    32.840    26.417
   135.990   137.442    -1.487    2.6282    32.860    26.434
   136.100   137.553    -1.487    2.6282    32.860    26.434
   136.200   137.654    -1.487    2.6282    32.860    26.434
   136.310   137.765    -1.487    2.6282    32.860    26.434
   136.420   137.877    -1.487    2.6282    32.860    26.434
   136.530   137.988    -1.487    2.6282    32.860    26.434
   136.640   138.099    -1.487    2.6282    32.860    26.433
   136.750   138.210    -1.487    2.6282    32.860    26.433
   136.860   138.321    -1.487    2.6282    32.860    26.433
   136.970   138.433    -1.487    2.6282    32.860    26.433
   137.080   138.544    -1.487    2.6282    32.860    26.433
   137.190   138.655    -1.487    2.6297    32.880    26.450
   137.300   138.766    -1.487    2.6297    32.880    26.450
   137.410   138.878    -1.487    2.6297    32.880    26.450
   137.520   138.989    -1.487    2.6297    32.880    26.450
   137.630   139.100    -1.487    2.6297    32.880    26.450
   137.740   139.211    -1.487    2.6297    32.880    26.450
   137.850   139.322    -1.487    2.6297    32.880    26.450
   137.960   139.434    -1.487    2.6297    32.880    26.450
   138.070   139.545    -1.487    2.6297    32.880    26.450
   138.180   139.656    -1.487    2.6297    32.880    26.449
   138.290   139.767    -1.487    2.6311    32.899    26.465
   138.390   139.868    -1.487    2.6297    32.879    26.449
   138.500   139.980    -1.487    2.6297    32.879    26.449
   138.610   140.091    -1.487    2.6297    32.879    26.449
   138.720   140.202    -1.487    2.6311    32.899    26.465
   138.830   140.313    -1.487    2.6311    32.898    26.465
   138.940   140.424    -1.487    2.6311    32.898    26.465
   139.050   140.536    -1.487    2.6311    32.898    26.465
   139.160   140.647    -1.487    2.6311    32.898    26.465
   139.270   140.758    -1.487    2.6311    32.898    26.465
   139.380   140.869    -1.487    2.6311    32.898    26.465
   139.490   140.980    -1.487    2.6311    32.898    26.464
   139.600   141.092    -1.487    2.6311    32.898    26.464
   139.710   141.203    -1.487    2.6311    32.898    26.464
   139.820   141.314    -1.487    2.6311    32.898    26.464
   139.930   141.425    -1.487    2.6311    32.898    26.464
   140.040   141.537    -1.487    2.6311    32.898    26.464
   140.150   141.648    -1.487    2.6311    32.898    26.464
   140.260   141.759    -1.498    2.6311    32.910    26.474
   140.370   141.870    -1.498    2.6297    32.890    26.459
   140.470   141.971    -1.509    2.6297    32.902    26.469
   140.580   142.083    -1.520    2.6297    32.915    26.479
   140.690   142.194    -1.520    2.6297    32.914    26.479
   140.800   142.305    -1.530    2.6297    32.925    26.488
   140.910   142.416    -1.530    2.6297    32.925    26.488
   141.020   142.527    -1.530    2.6297    32.925    26.488
   141.130   142.639    -1.520    2.6311    32.933    26.494
   141.240   142.750    -1.520    2.6311    32.933    26.494
   141.350   142.861    -1.509    2.6311    32.921    26.484
   141.460   142.972    -1.509    2.6311    32.921    26.484
   141.570   143.083    -1.509    2.6311    32.921    26.484
   141.680   143.195    -1.509    2.6326    32.942    26.500
   141.790   143.306    -1.509    2.6326    32.942    26.500
   141.900   143.417    -1.498    2.6326    32.929    26.490
   142.010   143.528    -1.498    2.6326    32.929    26.490
   142.120   143.640    -1.498    2.6326    32.929    26.490
   142.230   143.751    -1.498    2.6326    32.929    26.490
   142.340   143.862    -1.509    2.6326    32.941    26.500
   142.450   143.973    -1.509    2.6326    32.941    26.500
   142.550   144.074    -1.509    2.6326    32.941    26.500
   142.660   144.185    -1.509    2.6326    32.941    26.500
   142.770   144.297    -1.509    2.6326    32.941    26.500
   142.880   144.408    -1.509    2.6326    32.941    26.500
   142.990   144.519    -1.509    2.6326    32.941    26.500
   143.100   144.630    -1.509    2.6341    32.961    26.516
   143.210   144.742    -1.509    2.6326    32.941    26.500
   143.320   144.853    -1.509    2.6341    32.961    26.516
   143.430   144.964    -1.509    2.6341    32.961    26.516
   143.540   145.075    -1.509    2.6341    32.961    26.516
   143.650   145.186    -1.509    2.6341    32.961    26.516
   143.760   145.298    -1.509    2.6341    32.961    26.516
   143.870   145.409    -1.509    2.6341    32.961    26.516
   143.980   145.520    -1.509    2.6356    32.982    26.533
   144.090   145.631    -1.509    2.6356    32.981    26.533
   144.200   145.742    -1.509    2.6356    32.981    26.533
   144.310   145.854    -1.509    2.6356    32.981    26.533
   144.420   145.965    -1.509    2.6356    32.981    26.533
   144.520   146.066    -1.509    2.6356    32.981    26.533
   144.630   146.177    -1.498    2.6370    32.988    26.538
   144.740   146.288    -1.498    2.6370    32.988    26.538
   144.850   146.400    -1.498    2.6370    32.988    26.538
   144.960   146.511    -1.498    2.6385    33.009    26.555
   145.070   146.622    -1.487    2.6370    32.976    26.528
   145.180   146.733    -1.487    2.6385    32.996    26.544
   145.290   146.845    -1.487    2.6385    32.996    26.544
   145.400   146.956    -1.487    2.6385    32.996    26.544
   145.510   147.067    -1.487    2.6385    32.996    26.544
   145.620   147.178    -1.487    2.6385    32.996    26.544
   145.730   147.289    -1.487    2.6385    32.996    26.544
   145.840   147.401    -1.476    2.6400    33.004    26.551
   145.950   147.512    -1.487    2.6400    33.017    26.561
   146.060   147.623    -1.476    2.6400    33.004    26.550
   146.170   147.734    -1.476    2.6400    33.004    26.550
   146.280   147.845    -1.476    2.6400    33.004    26.550
   146.390   147.957    -1.476    2.6400    33.004    26.550
   146.490   148.058    -1.476    2.6400    33.004    26.550
   146.600   148.169    -1.476    2.6400    33.004    26.550
   146.710   148.280    -1.476    2.6400    33.004    26.550
   146.820   148.391    -1.476    2.6400    33.004    26.550
   146.930   148.503    -1.476    2.6400    33.004    26.550
   147.040   148.614    -1.476    2.6400    33.004    26.550
   147.150   148.725    -1.476    2.6400    33.004    26.550
   147.260   148.836    -1.476    2.6400    33.004    26.550
   147.370   148.948    -1.476    2.6415    33.024    26.567
   147.480   149.059    -1.476    2.6400    33.003    26.550
   147.590   149.170    -1.476    2.6415    33.024    26.566
   147.700   149.281    -1.476    2.6415    33.024    26.566
   147.810   149.392    -1.476    2.6415    33.024    26.566
   147.920   149.504    -1.476    2.6415    33.024    26.566
   148.030   149.615    -1.476    2.6415    33.024    26.566
   148.140   149.726    -1.476    2.6415    33.024    26.566
   148.250   149.837    -1.476    2.6415    33.024    26.566
   148.360   149.949    -1.476    2.6415    33.024    26.566
   148.460   150.050    -1.476    2.6415    33.023    26.566
   148.570   150.161    -1.476    2.6415    33.023    26.566
   148.680   150.272    -1.476    2.6415    33.023    26.566
   148.790   150.383    -1.476    2.6415    33.023    26.566
   148.900   150.494    -1.476    2.6415    33.023    26.566
   149.010   150.606    -1.476    2.6415    33.023    26.566
   149.120   150.717    -1.476    2.6415    33.023    26.566
   149.230   150.828    -1.476    2.6429    33.042    26.581
   149.340   150.939    -1.476    2.6415    33.023    26.566
   149.450   151.051    -1.476    2.6415    33.023    26.565
   149.560   151.162    -1.476    2.6429    33.042    26.581
   149.670   151.273    -1.476    2.6429    33.042    26.581
   149.780   151.384    -1.476    2.6429    33.042    26.581
   149.890   151.495    -1.476    2.6429    33.042    26.581
   150.000   151.607    -1.476    2.6429    33.042    26.581
   150.110   151.718    -1.476    2.6429    33.042    26.581
   150.220   151.829    -1.476    2.6429    33.042    26.581
   150.320   151.930    -1.476    2.6429    33.042    26.581
   150.430   152.041    -1.476    2.6444    33.062    26.597
   150.540   152.153    -1.476    2.6429    33.041    26.581
   150.650   152.264    -1.476    2.6444    33.062    26.597
   150.760   152.375    -1.476    2.6444    33.062    26.597
   150.870   152.486    -1.476    2.6444    33.062    26.597
   150.980   152.598    -1.476    2.6444    33.062    26.597
   151.090   152.709    -1.476    2.6444    33.062    26.597
   151.200   152.820    -1.476    2.6444    33.062    26.597
   151.310   152.931    -1.476    2.6444    33.062    26.597
   151.420   153.042    -1.476    2.6444    33.062    26.597
   151.530   153.154    -1.476    2.6444    33.061    26.597
   151.640   153.265    -1.476    2.6459    33.082    26.614
   151.750   153.376    -1.476    2.6444    33.061    26.597
   151.860   153.487    -1.476    2.6459    33.082    26.613
   151.970   153.599    -1.476    2.6459    33.082    26.613
   152.080   153.710    -1.465    2.6459    33.070    26.603
   152.180   153.811    -1.476    2.6459    33.082    26.613
   152.290   153.922    -1.465    2.6459    33.069    26.603
   152.400   154.033    -1.465    2.6459    33.069    26.603
   152.510   154.145    -1.465    2.6473    33.089    26.619
   152.620   154.256    -1.465    2.6473    33.088    26.618
   152.730   154.367    -1.465    2.6473    33.088    26.618
   152.840   154.478    -1.465    2.6473    33.088    26.618
   152.950   154.589    -1.465    2.6473    33.088    26.618
   153.060   154.701    -1.465    2.6473    33.088    26.618
   153.170   154.812    -1.465    2.6473    33.088    26.618
   153.280   154.923    -1.465    2.6473    33.088    26.618
   153.390   155.034    -1.455    2.6488    33.098    26.626
   153.500   155.146    -1.455    2.6488    33.097    26.626
   153.610   155.257    -1.465    2.6488    33.109    26.635
   153.720   155.368    -1.455    2.6488    33.097    26.625
   153.830   155.479    -1.455    2.6488    33.097    26.625
   153.930   155.580    -1.455    2.6488    33.097    26.625
   154.040   155.691    -1.455    2.6488    33.097    26.625
   154.150   155.803    -1.455    2.6488    33.097    26.625
   154.260   155.914    -1.455    2.6488    33.097    26.625
   154.370   156.025    -1.455    2.6503    33.118    26.642
   154.480   156.136    -1.455    2.6503    33.118    26.642
   154.590   156.248    -1.455    2.6503    33.117    26.642
   154.700   156.359    -1.455    2.6503    33.117    26.642
   154.810   156.470    -1.455    2.6503    33.117    26.642
   154.920   156.581    -1.465    2.6488    33.108    26.634
   155.030   156.692    -1.465    2.6488    33.108    26.634
   155.140   156.804    -1.465    2.6503    33.128    26.651
   155.250   156.915    -1.465    2.6503    33.128    26.651
   155.360   157.026    -1.465    2.6503    33.128    26.651
   155.470   157.137    -1.465    2.6503    33.128    26.651
   155.580   157.249    -1.455    2.6503    33.117    26.641
   155.680   157.350    -1.455    2.6503    33.117    26.641
   155.790   157.461    -1.455    2.6518    33.137    26.658
   155.900   157.572    -1.444    2.6518    33.125    26.648
   156.010   157.683    -1.444    2.6518    33.125    26.648
   156.120   157.795    -1.444    2.6532    33.144    26.663
   156.230   157.906    -1.444    2.6532    33.144    26.663
   156.340   158.017    -1.444    2.6532    33.144    26.663
   156.450   158.128    -1.433    2.6532    33.132    26.653
   156.560   158.239    -1.444    2.6532    33.144    26.663
   156.670   158.351    -1.433    2.6547    33.152    26.669
   156.780   158.462    -1.433    2.6547    33.152    26.669
   156.890   158.573    -1.433    2.6547    33.152    26.669
   157.000   158.684    -1.433    2.6547    33.152    26.669
   157.110   158.796    -1.433    2.6547    33.152    26.669
   157.220   158.907    -1.433    2.6547    33.152    26.669
   157.330   159.018    -1.433    2.6562    33.172    26.686
   157.430   159.119    -1.433    2.6562    33.172    26.686
   157.540   159.230    -1.433    2.6562    33.172    26.686
   157.650   159.342    -1.422    2.6562    33.160    26.675
   157.760   159.453    -1.422    2.6562    33.160    26.675
   157.870   159.564    -1.422    2.6577    33.181    26.692
   157.980   159.675    -1.422    2.6577    33.180    26.692
   158.090   159.787    -1.422    2.6577    33.180    26.692
   158.200   159.898    -1.422    2.6577    33.180    26.692
   158.310   160.009    -1.422    2.6591    33.199    26.707
   158.420   160.120    -1.422    2.6577    33.180    26.692
   158.530   160.231    -1.422    2.6591    33.199    26.707
   158.640   160.343    -1.422    2.6591    33.199    26.707
   158.750   160.454    -1.422    2.6591    33.199    26.707
   158.860   160.565    -1.411    2.6591    33.187    26.697
   158.970   160.676    -1.411    2.6591    33.187    26.697
   159.070   160.777    -1.411    2.6606    33.207    26.714
   159.180   160.889    -1.411    2.6606    33.207    26.713
   159.290   161.000    -1.411    2.6606    33.207    26.713
   159.400   161.111    -1.411    2.6606    33.207    26.713
   159.510   161.222    -1.411    2.6606    33.207    26.713
   159.620   161.334    -1.411    2.6606    33.207    26.713
   159.730   161.445    -1.411    2.6621    33.228    26.730
   159.840   161.556    -1.411    2.6621    33.228    26.730
   159.950   161.667    -1.400    2.6621    33.215    26.720
   160.060   161.778    -1.400    2.6621    33.215    26.720
   160.170   161.890    -1.400    2.6636    33.236    26.736
   160.280   162.001    -1.400    2.6636    33.236    26.736
   160.390   162.112    -1.400    2.6636    33.236    26.736
   160.500   162.223    -1.400    2.6636    33.235    26.736
   160.610   162.335    -1.390    2.6636    33.224    26.727
   160.710   162.436    -1.400    2.6636    33.235    26.736
   160.820   162.547    -1.400    2.6636    33.235    26.736
   160.930   162.658    -1.400    2.6636    33.235    26.736
   161.040   162.769    -1.390    2.6650    33.243    26.742
   161.150   162.881    -1.390    2.6650    33.243    26.742
   161.260   162.992    -1.400    2.6650    33.254    26.751
   161.370   163.103    -1.390    2.6650    33.243    26.742
   161.480   163.214    -1.390    2.6650    33.243    26.742
   161.590   163.325    -1.390    2.6650    33.243    26.742
   161.700   163.437    -1.390    2.6665    33.263    26.758
   161.810   163.548    -1.390    2.6665    33.263    26.758
   161.920   163.659    -1.390    2.6665    33.263    26.758
   162.030   163.770    -1.390    2.6665    33.263    26.758
   162.140   163.882    -1.379    2.6665    33.251    26.748
   162.250   163.993    -1.379    2.6680    33.271    26.765
   162.350   164.094    -1.379    2.6680    33.271    26.765
   162.460   164.205    -1.379    2.6680    33.271    26.765
   162.570   164.316    -1.379    2.6680    33.271    26.764
   162.680   164.428    -1.379    2.6680    33.271    26.764
   162.790   164.539    -1.379    2.6680    33.271    26.764
   162.900   164.650    -1.379    2.6694    33.290    26.780
   163.010   164.761    -1.379    2.6694    33.290    26.780
   163.120   164.873    -1.379    2.6694    33.290    26.780
   163.230   164.984    -1.368    2.6694    33.278    26.769
   163.340   165.095    -1.368    2.6694    33.278    26.769
   163.450   165.206    -1.379    2.6694    33.290    26.780
   163.560   165.317    -1.368    2.6694    33.278    26.769
   163.670   165.429    -1.368    2.6709    33.298    26.786
   163.780   165.540    -1.368    2.6709    33.298    26.786
   163.890   165.651    -1.368    2.6709    33.298    26.786
   163.990   165.752    -1.368    2.6709    33.298    26.786
   164.100   165.863    -1.368    2.6709    33.298    26.786
   164.210   165.975    -1.368    2.6724    33.318    26.802
   164.320   166.086    -1.368    2.6724    33.318    26.802
   164.430   166.197    -1.368    2.6724    33.318    26.802
   164.540   166.308    -1.368    2.6724    33.318    26.802
   164.650   166.420    -1.357    2.6739    33.326    26.809
   164.760   166.531    -1.368    2.6739    33.339    26.819
   164.870   166.642    -1.357    2.6739    33.326    26.808
   164.980   166.753    -1.357    2.6739    33.326    26.808
   165.090   166.864    -1.357    2.6753    33.345    26.824
   165.200   166.976    -1.357    2.6753    33.345    26.824
   165.310   167.087    -1.357    2.6753    33.345    26.824
   165.420   167.198    -1.357    2.6753    33.345    26.824
   165.520   167.299    -1.357    2.6768    33.366    26.840
   165.630   167.411    -1.357    2.6768    33.366    26.840
   165.740   167.522    -1.357    2.6768    33.366    26.840
   165.850   167.633    -1.357    2.6768    33.366    26.840
   165.960   167.744    -1.346    2.6768    33.353    26.830
   166.070   167.855    -1.346    2.6783    33.374    26.847
   166.180   167.967    -1.346    2.6783    33.374    26.847
   166.290   168.078    -1.346    2.6783    33.374    26.847
   166.400   168.189    -1.346    2.6783    33.373    26.846
   166.510   168.300    -1.346    2.6783    33.373    26.846
   166.620   168.412    -1.346    2.6783    33.373    26.846
   166.730   168.523    -1.346    2.6798    33.394    26.863
   166.840   168.634    -1.335    2.6783    33.361    26.836
   166.950   168.745    -1.335    2.6783    33.361    26.836
   167.060   168.856    -1.335    2.6798    33.381    26.853
   167.160   168.958    -1.335    2.6783    33.361    26.836
   167.270   169.069    -1.335    2.6798    33.381    26.852
   167.380   169.180    -1.335    2.6798    33.381    26.852
   167.490   169.291    -1.335    2.6798    33.381    26.852
   167.600   169.402    -1.325    2.6812    33.389    26.858
   167.710   169.514    -1.325    2.6812    33.389    26.858
   167.820   169.625    -1.325    2.6827    33.410    26.875
   167.930   169.736    -1.325    2.6827    33.409    26.875
   168.040   169.847    -1.314    2.6827    33.397    26.865
   168.150   169.959    -1.314    2.6842    33.418    26.881
   168.260   170.070    -1.314    2.6842    33.418    26.881
   168.370   170.181    -1.314    2.6842    33.417    26.881
   168.480   170.292    -1.314    2.6842    33.417    26.881
   168.590   170.404    -1.314    2.6842    33.417    26.881
   168.690   170.505    -1.314    2.6842    33.417    26.881
   168.800   170.616    -1.314    2.6842    33.417    26.881
   168.910   170.727    -1.303    2.6842    33.405    26.871
   169.020   170.838    -1.303    2.6856    33.424    26.886
   169.130   170.950    -1.303    2.6856    33.424    26.886
   169.240   171.061    -1.292    2.6871    33.432    26.892
   169.350   171.172    -1.292    2.6871    33.432    26.892
   169.460   171.283    -1.292    2.6871    33.432    26.892
   169.570   171.395    -1.292    2.6871    33.432    26.892
   169.680   171.506    -1.292    2.6871    33.432    26.892
   169.790   171.617    -1.281    2.6886    33.440    26.898
   169.900   171.728    -1.281    2.6886    33.440    26.898
   170.010   171.839    -1.281    2.6886    33.440    26.898
   170.110   171.941    -1.281    2.6886    33.440    26.898
   170.220   172.052    -1.281    2.6886    33.440    26.898
   170.330   172.163    -1.281    2.6886    33.440    26.898
   170.440   172.274    -1.281    2.6886    33.440    26.898
   170.550   172.385    -1.281    2.6886    33.440    26.898
   170.660   172.497    -1.281    2.6886    33.439    26.898
   170.770   172.608    -1.281    2.6901    33.460    26.915
   170.880   172.719    -1.281    2.6901    33.460    26.915
   170.990   172.830    -1.281    2.6901    33.460    26.915
   171.100   172.942    -1.292    2.6901    33.472    26.925
   171.210   173.053    -1.292    2.6901    33.472    26.925
   171.320   173.164    -1.292    2.6901    33.472    26.925
   171.430   173.275    -1.292    2.6901    33.472    26.925
   171.540   173.387    -1.292    2.6901    33.472    26.925
   171.640   173.488    -1.292    2.6915    33.491    26.940
   171.750   173.599    -1.292    2.6915    33.491    26.940
   171.860   173.710    -1.292    2.6915    33.491    26.940
   171.970   173.821    -1.281    2.6915    33.478    26.930
   172.080   173.933    -1.281    2.6930    33.499    26.946
   172.190   174.044    -1.281    2.6930    33.499    26.946
   172.300   174.155    -1.281    2.6930    33.499    26.946
   172.410   174.266    -1.281    2.6945    33.519    26.963
   172.520   174.378    -1.271    2.6945    33.508    26.953
   172.630   174.489    -1.271    2.6945    33.508    26.953
   172.740   174.600    -1.271    2.6945    33.508    26.953
   172.850   174.711    -1.271    2.6960    33.528    26.970
   172.960   174.822    -1.271    2.6960    33.528    26.970
   173.060   174.924    -1.271    2.6960    33.528    26.970
   173.170   175.035    -1.271    2.6960    33.528    26.970
   173.280   175.146    -1.271    2.6960    33.528    26.970
   173.390   175.257    -1.271    2.6960    33.528    26.970
   173.500   175.368    -1.271    2.6960    33.528    26.969
   173.610   175.480    -1.271    2.6974    33.547    26.985
   173.720   175.591    -1.271    2.6974    33.547    26.985
   173.830   175.702    -1.271    2.6960    33.528    26.969
   173.940   175.813    -1.271    2.6974    33.547    26.985
   174.050   175.925    -1.271    2.6960    33.528    26.969
   174.160   176.036    -1.271    2.6974    33.547    26.985
   174.270   176.147    -1.271    2.6974    33.547    26.985
   174.380   176.258    -1.271    2.6974    33.547    26.985
   174.490   176.370    -1.271    2.6974    33.546    26.985
   174.590   176.471    -1.271    2.6974    33.546    26.984
   174.700   176.582    -1.271    2.6974    33.546    26.984
   174.810   176.693    -1.271    2.6989    33.567    27.001
   174.920   176.804    -1.271    2.6989    33.567    27.001
   175.030   176.916    -1.271    2.7004    33.587    27.018
   175.140   177.027    -1.260    2.7004    33.575    27.007
   175.250   177.138    -1.260    2.7004    33.575    27.007
   175.360   177.249    -1.260    2.7018    33.594    27.023
   175.470   177.361    -1.260    2.7018    33.594    27.023
   175.580   177.472    -1.260    2.7018    33.594    27.023
   175.690   177.583    -1.260    2.7018    33.594    27.022
   175.800   177.694    -1.249    2.7033    33.602    27.029
   175.910   177.805    -1.249    2.7033    33.602    27.029
   176.010   177.907    -1.249    2.7033    33.602    27.029
   176.120   178.018    -1.249    2.7033    33.602    27.029
   176.230   178.129    -1.249    2.7033    33.602    27.029
   176.340   178.240    -1.249    2.7033    33.601    27.028
   176.450   178.352    -1.249    2.7048    33.622    27.045
   176.560   178.463    -1.249    2.7048    33.622    27.045
   176.670   178.574    -1.249    2.7048    33.622    27.045
   176.780   178.685    -1.249    2.7048    33.622    27.045
   176.890   178.796    -1.238    2.7048    33.609    27.034
   177.000   178.908    -1.238    2.7048    33.609    27.034
   177.110   179.019    -1.238    2.7048    33.609    27.034
   177.220   179.130    -1.238    2.7048    33.609    27.034
   177.330   179.241    -1.238    2.7063    33.630    27.051
   177.430   179.343    -1.238    2.7063    33.630    27.051
   177.540   179.454    -1.227    2.7063    33.617    27.040
   177.650   179.565    -1.227    2.7077    33.636    27.056
   177.760   179.676    -1.227    2.7077    33.636    27.056
   177.870   179.787    -1.227    2.7092    33.657    27.072
   177.980   179.899    -1.217    2.7092    33.645    27.063
   178.090   180.010    -1.217    2.7092    33.645    27.063
   178.200   180.121    -1.217    2.7092    33.645    27.063
   178.310   180.232    -1.217    2.7092    33.645    27.063
   178.420   180.344    -1.217    2.7107    33.666    27.079
   178.530   180.455    -1.217    2.7107    33.666    27.079
   178.640   180.566    -1.217    2.7107    33.665    27.079
   178.740   180.667    -1.206    2.7107    33.653    27.069
   178.850   180.778    -1.206    2.7107    33.653    27.069
   178.960   180.890    -1.206    2.7122    33.673    27.085
   179.070   181.001    -1.195    2.7122    33.661    27.075
   179.180   181.112    -1.195    2.7122    33.661    27.075
   179.290   181.223    -1.195    2.7136    33.680    27.090
   179.400   181.335    -1.195    2.7136    33.680    27.090
   179.510   181.446    -1.195    2.7151    33.700    27.107
   179.620   181.557    -1.184    2.7151    33.688    27.096
   179.730   181.668    -1.184    2.7151    33.688    27.096
   179.840   181.780    -1.184    2.7166    33.708    27.113
   179.950   181.891    -1.184    2.7166    33.708    27.113
   180.060   182.002    -1.184    2.7166    33.708    27.113
   180.160   182.103    -1.173    2.7180    33.715    27.118
   180.270   182.214    -1.173    2.7180    33.715    27.118
   180.380   182.326    -1.173    2.7180    33.715    27.118
   180.490   182.437    -1.173    2.7180    33.715    27.118
   180.600   182.548    -1.173    2.7180    33.715    27.118
   180.710   182.659    -1.173    2.7195    33.735    27.134
   180.820   182.771    -1.163    2.7195    33.724    27.125
   180.930   182.882    -1.163    2.7195    33.724    27.125
   181.040   182.993    -1.163    2.7210    33.744    27.141
   181.150   183.104    -1.163    2.7210    33.744    27.141
   181.260   183.216    -1.152    2.7225    33.752    27.147
   181.370   183.327    -1.152    2.7225    33.752    27.147
   181.470   183.428    -1.141    2.7225    33.740    27.137
   181.580   183.539    -1.141    2.7239    33.759    27.152
   181.690   183.650    -1.130    2.7239    33.746    27.142
   181.800   183.762    -1.120    2.7254    33.755    27.149
   181.910   183.873    -1.120    2.7254    33.755    27.149
   182.020   183.984    -1.109    2.7269    33.763    27.155
   182.130   184.095    -1.098    2.7284    33.771    27.161
   182.240   184.207    -1.098    2.7284    33.771    27.161
   182.350   184.318    -1.087    2.7298    33.778    27.166
   182.460   184.429    -1.087    2.7298    33.778    27.166
   182.570   184.540    -1.087    2.7298    33.778    27.166
   182.680   184.651    -1.076    2.7313    33.786    27.172
   182.790   184.763    -1.076    2.7313    33.786    27.172
   182.890   184.864    -1.076    2.7313    33.786    27.172
   183.000   184.975    -1.076    2.7313    33.786    27.172
   183.110   185.086    -1.076    2.7328    33.806    27.189
   183.220   185.198    -1.066    2.7328    33.795    27.179
   183.330   185.309    -1.066    2.7328    33.795    27.179
   183.440   185.420    -1.066    2.7342    33.814    27.194
   183.550   185.531    -1.055    2.7342    33.801    27.184
   183.660   185.643    -1.055    2.7342    33.801    27.184
   183.770   185.754    -1.055    2.7357    33.822    27.200
   183.880   185.865    -1.055    2.7357    33.822    27.200
   183.990   185.976    -1.044    2.7357    33.809    27.190
   184.100   186.087    -1.044    2.7372    33.829    27.206
   184.200   186.189    -1.044    2.7372    33.829    27.206
   184.310   186.300    -1.033    2.7387    33.837    27.212
   184.420   186.411    -1.033    2.7387    33.837    27.212
   184.530   186.522    -1.033    2.7387    33.837    27.212
   184.640   186.634    -1.033    2.7387    33.837    27.212
   184.750   186.745    -1.033    2.7401    33.856    27.228
   184.860   186.856    -1.023    2.7401    33.845    27.218
   184.970   186.967    -1.023    2.7401    33.845    27.218
   185.080   187.078    -1.023    2.7416    33.865    27.235
   185.190   187.190    -1.012    2.7416    33.853    27.224
   185.300   187.301    -1.012    2.7416    33.853    27.224
   185.410   187.412    -1.012    2.7431    33.873    27.241
   185.510   187.513    -1.012    2.7431    33.873    27.240
   185.620   187.625    -1.001    2.7446    33.881    27.247
   185.730   187.736    -1.001    2.7446    33.881    27.246
   185.840   187.847    -1.001    2.7446    33.881    27.246
   185.950   187.958    -0.990    2.7446    33.868    27.236
   186.060   188.070    -0.990    2.7446    33.868    27.236
   186.170   188.181    -0.990    2.7460    33.887    27.251
   186.280   188.292    -0.990    2.7460    33.887    27.251
   186.390   188.403    -0.990    2.7460    33.887    27.251
   186.500   188.514    -0.990    2.7460    33.887    27.251
   186.610   188.626    -0.980    2.7460    33.876    27.242
   186.720   188.737    -0.980    2.7475    33.896    27.258
   186.820   188.838    -0.980    2.7475    33.896    27.258
   186.930   188.949    -0.980    2.7475    33.896    27.258
   187.040   189.061    -0.980    2.7475    33.896    27.258
   187.150   189.172    -0.980    2.7475    33.896    27.258
   187.260   189.283    -0.980    2.7475    33.896    27.258
   187.370   189.394    -0.969    2.7490    33.904    27.264
   187.480   189.506    -0.969    2.7490    33.904    27.264
   187.590   189.617    -0.969    2.7490    33.903    27.264
   187.700   189.728    -0.969    2.7490    33.903    27.264
   187.810   189.839    -0.969    2.7505    33.924    27.280
   187.920   189.950    -0.969    2.7505    33.924    27.280
   188.020   190.052    -0.969    2.7505    33.924    27.280
   188.130   190.163    -0.958    2.7505    33.911    27.269
   188.240   190.274    -0.958    2.7505    33.911    27.269
   188.350   190.385    -0.958    2.7505    33.911    27.269
   188.460   190.497    -0.958    2.7505    33.911    27.269
   188.570   190.608    -0.958    2.7519    33.930    27.285
   188.680   190.719    -0.947    2.7519    33.917    27.274
   188.790   190.830    -0.947    2.7519    33.917    27.274
   188.900   190.942    -0.947    2.7519    33.917    27.274
   189.010   191.053    -0.947    2.7519    33.917    27.274
   189.120   191.164    -0.947    2.7534    33.938    27.290
   189.230   191.275    -0.947    2.7534    33.937    27.290
   189.330   191.376    -0.947    2.7534    33.937    27.290
   189.440   191.488    -0.937    2.7534    33.926    27.281
   189.550   191.599    -0.937    2.7534    33.926    27.281
   189.660   191.710    -0.937    2.7534    33.926    27.281
   189.770   191.821    -0.937    2.7549    33.946    27.297
   189.880   191.933    -0.937    2.7549    33.946    27.297
   189.990   192.044    -0.937    2.7549    33.946    27.297
   190.100   192.155    -0.937    2.7549    33.946    27.297
   190.210   192.266    -0.937    2.7549    33.946    27.297
   190.320   192.378    -0.937    2.7549    33.946    27.297
   190.430   192.489    -0.937    2.7549    33.946    27.297
   190.540   192.600    -0.937    2.7563    33.965    27.312
   190.640   192.701    -0.937    2.7549    33.946    27.297
   190.750   192.812    -0.937    2.7563    33.965    27.312
   190.860   192.924    -0.926    2.7563    33.952    27.302
   190.970   193.035    -0.937    2.7563    33.965    27.312
   191.080   193.146    -0.926    2.7563    33.952    27.301
   191.190   193.257    -0.926    2.7563    33.952    27.301
   191.300   193.369    -0.926    2.7563    33.952    27.301
   191.410   193.480    -0.926    2.7563    33.952    27.301
   191.520   193.591    -0.926    2.7578    33.972    27.318
   191.630   193.702    -0.926    2.7578    33.972    27.318
   191.740   193.814    -0.915    2.7578    33.960    27.307
   191.840   193.915    -0.915    2.7578    33.960    27.307
   191.950   194.026    -0.915    2.7578    33.960    27.307
   192.060   194.137    -0.915    2.7578    33.959    27.307
   192.170   194.248    -0.915    2.7593    33.980    27.323
   192.280   194.360    -0.904    2.7593    33.967    27.313
   192.390   194.471    -0.904    2.7593    33.967    27.313
   192.500   194.582    -0.904    2.7593    33.967    27.313
   192.610   194.693    -0.904    2.7593    33.967    27.313
   192.720   194.805    -0.904    2.7608    33.987    27.329
   192.830   194.916    -0.904    2.7608    33.987    27.329
   192.940   195.027    -0.904    2.7608    33.987    27.329
   193.040   195.128    -0.894    2.7608    33.976    27.320
   193.150   195.239    -0.894    2.7608    33.976    27.320
   193.260   195.351    -0.894    2.7608    33.976    27.319
   193.370   195.462    -0.894    2.7608    33.976    27.319
   193.480   195.573    -0.894    2.7622    33.995    27.335
   193.590   195.684    -0.894    2.7622    33.995    27.335
   193.700   195.796    -0.883    2.7622    33.982    27.324
   193.810   195.907    -0.883    2.7637    34.002    27.341
   193.920   196.018    -0.883    2.7637    34.002    27.341
   194.030   196.129    -0.883    2.7652    34.023    27.357
   194.140   196.241    -0.883    2.7637    34.002    27.340
   194.240   196.342    -0.872    2.7652    34.010    27.346
   194.350   196.453    -0.872    2.7652    34.010    27.346
   194.460   196.564    -0.872    2.7652    34.010    27.346
   194.570   196.676    -0.872    2.7652    34.010    27.346
   194.680   196.787    -0.872    2.7652    34.010    27.346
   194.790   196.898    -0.872    2.7652    34.010    27.346
   194.900   197.009    -0.872    2.7667    34.030    27.363
   195.010   197.120    -0.862    2.7667    34.019    27.353
   195.120   197.232    -0.872    2.7667    34.030    27.362
   195.230   197.343    -0.862    2.7667    34.018    27.353
   195.340   197.454    -0.862    2.7667    34.018    27.353
   195.440   197.555    -0.862    2.7667    34.018    27.353
   195.550   197.667    -0.862    2.7681    34.037    27.368
   195.660   197.778    -0.862    2.7681    34.037    27.368
   195.770   197.889    -0.851    2.7681    34.025    27.357
   195.880   198.000    -0.851    2.7696    34.045    27.374
   195.990   198.112    -0.851    2.7696    34.045    27.374
   196.100   198.223    -0.851    2.7696    34.045    27.374
   196.210   198.334    -0.851    2.7696    34.045    27.374
   196.320   198.445    -0.851    2.7696    34.045    27.374
   196.430   198.557    -0.851    2.7696    34.045    27.374
   196.540   198.668    -0.840    2.7696    34.032    27.363
   196.640   198.769    -0.840    2.7711    34.052    27.380
   196.750   198.880    -0.840    2.7711    34.052    27.379
   196.860   198.991    -0.840    2.7711    34.052    27.379
   196.970   199.103    -0.840    2.7711    34.052    27.379
   197.080   199.214    -0.829    2.7711    34.040    27.369
   197.190   199.325    -0.829    2.7725    34.059    27.384
   197.300   199.436    -0.829    2.7725    34.059    27.384
   197.410   199.548    -0.829    2.7740    34.079    27.400
   197.520   199.659    -0.819    2.7740    34.068    27.391
   197.630   199.770    -0.819    2.7740    34.067    27.391
   197.740   199.881    -0.819    2.7740    34.067    27.391
   197.840   199.983    -0.819    2.7755    34.088    27.407
   197.950   200.094    -0.808    2.7755    34.075    27.397
   198.060   200.205    -0.808    2.7755    34.075    27.397
   198.170   200.316    -0.797    2.7770    34.083    27.402
   198.280   200.427    -0.797    2.7770    34.083    27.402
   198.390   200.539    -0.787    2.7784    34.090    27.408
   198.500   200.650    -0.765    2.7814    34.106    27.420
   198.610   200.761    -0.754    2.7814    34.094    27.409
   198.720   200.872    -0.744    2.7829    34.103    27.416
   198.830   200.984    -0.744    2.7829    34.103    27.416
   198.940   201.095    -0.744    2.7843    34.121    27.431
   199.040   201.196    -0.733    2.7843    34.109    27.421
   199.150   201.307    -0.733    2.7843    34.109    27.421
   199.260   201.419    -0.733    2.7843    34.109    27.421
   199.370   201.530    -0.733    2.7843    34.109    27.421
   199.480   201.641    -0.733    2.7858    34.129    27.437
   199.590   201.752    -0.733    2.7843    34.109    27.421
   199.700   201.864    -0.733    2.7858    34.129    27.437
   199.810   201.975    -0.722    2.7858    34.116    27.426
   199.920   202.086    -0.722    2.7858    34.116    27.426
   200.030   202.197    -0.722    2.7858    34.116    27.426
   200.140   202.309    -0.722    2.7858    34.116    27.426
   200.240   202.410    -0.722    2.7858    34.116    27.426
   200.350   202.521    -0.722    2.7858    34.116    27.426
   200.460   202.632    -0.722    2.7873    34.136    27.443
   200.570   202.743    -0.722    2.7873    34.136    27.442
   200.680   202.855    -0.722    2.7873    34.136    27.442
   200.790   202.966    -0.722    2.7873    34.136    27.442
   200.900   203.077    -0.722    2.7873    34.136    27.442
   201.010   203.188    -0.722    2.7873    34.136    27.442
   201.120   203.300    -0.712    2.7887    34.143    27.448
   201.230   203.411    -0.712    2.7887    34.143    27.448
   201.330   203.512    -0.701    2.7902    34.151    27.454
   201.440   203.623    -0.701    2.7917    34.171    27.470
   201.550   203.735    -0.690    2.7917    34.159    27.460
   201.660   203.846    -0.690    2.7917    34.159    27.459
   201.770   203.957    -0.680    2.7932    34.168    27.466
   201.880   204.068    -0.680    2.7932    34.168    27.466
   201.990   204.180    -0.680    2.7932    34.167    27.466
   202.100   204.291    -0.669    2.7932    34.155    27.456
   202.210   204.402    -0.669    2.7946    34.174    27.471
   202.320   204.513    -0.669    2.7946    34.174    27.471
   202.430   204.625    -0.669    2.7946    34.174    27.471
   202.530   204.726    -0.669    2.7946    34.174    27.471
   202.640   204.837    -0.658    2.7946    34.161    27.460
   202.750   204.948    -0.658    2.7946    34.161    27.460
   202.860   205.059    -0.658    2.7961    34.181    27.476
   202.970   205.171    -0.658    2.7961    34.181    27.476
   203.080   205.282    -0.658    2.7961    34.181    27.476
   203.190   205.393    -0.648    2.7976    34.190    27.483
   203.300   205.504    -0.648    2.7976    34.190    27.483
   203.410   205.616    -0.648    2.7976    34.190    27.483
   203.520   205.727    -0.648    2.7976    34.190    27.483
   203.620   205.828    -0.637    2.7976    34.177    27.472
   203.730   205.939    -0.637    2.7976    34.177    27.472
   203.840   206.051    -0.637    2.7976    34.177    27.472
   203.950   206.162    -0.637    2.7976    34.177    27.472
   204.060   206.273    -0.637    2.7991    34.197    27.488
   204.170   206.384    -0.626    2.8005    34.204    27.493
   204.280   206.495    -0.626    2.8005    34.204    27.493
   204.390   206.607    -0.626    2.8005    34.203    27.493
   204.500   206.718    -0.626    2.8005    34.203    27.493
   204.610   206.829    -0.626    2.8005    34.203    27.493
   204.720   206.940    -0.626    2.8005    34.203    27.493
   204.820   207.042    -0.626    2.8005    34.203    27.493
   204.930   207.153    -0.626    2.8005    34.203    27.493
   205.040   207.264    -0.626    2.8005    34.203    27.493
   205.150   207.375    -0.637    2.8005    34.215    27.503
   205.260   207.487    -0.637    2.7991    34.196    27.488
   205.370   207.598    -0.637    2.7991    34.196    27.488
   205.480   207.709    -0.648    2.8005    34.228    27.514
   205.590   207.820    -0.637    2.8005    34.215    27.503
   205.700   207.932    -0.637    2.8005    34.215    27.503
   205.810   208.043    -0.626    2.8005    34.203    27.492
   205.910   208.144    -0.626    2.8020    34.223    27.509
   206.020   208.255    -0.615    2.8035    34.230    27.514
   206.130   208.367    -0.605    2.8049    34.238    27.520
   206.240   208.478    -0.594    2.8049    34.225    27.509
   206.350   208.589    -0.583    2.8049    34.213    27.499
   206.460   208.700    -0.583    2.8049    34.213    27.499
   206.570   208.812    -0.594    2.8049    34.225    27.509
   206.680   208.923    -0.594    2.8049    34.225    27.509
   206.790   209.034    -0.594    2.8049    34.225    27.509
   206.900   209.145    -0.594    2.8049    34.225    27.509
   207.000   209.246    -0.594    2.8064    34.245    27.525
   207.110   209.358    -0.594    2.8064    34.245    27.525
   207.220   209.469    -0.594    2.8064    34.245    27.525
   207.330   209.580    -0.594    2.8064    34.245    27.525
   207.440   209.691    -0.594    2.8064    34.245    27.525
   207.550   209.803    -0.594    2.8064    34.245    27.525
   207.660   209.914    -0.583    2.8064    34.232    27.515
   207.770   210.025    -0.583    2.8079    34.253    27.531
   207.880   210.136    -0.583    2.8079    34.252    27.531
   207.990   210.248    -0.573    2.8079    34.241    27.521
   208.090   210.349    -0.573    2.8094    34.261    27.537
   208.200   210.460    -0.573    2.8094    34.261    27.537
   208.310   210.571    -0.573    2.8094    34.261    27.537
   208.420   210.683    -0.562    2.8108    34.267    27.542
   208.530   210.794    -0.541    2.8123    34.264    27.538
   208.640   210.905    -0.530    2.8138    34.271    27.544
   208.750   211.016    -0.519    2.8153    34.279    27.550
   208.860   211.128    -0.509    2.8153    34.268    27.540
   208.970   211.239    -0.498    2.8153    34.255    27.529
   209.080   211.350    -0.498    2.8167    34.274    27.545
   209.180   211.451    -0.487    2.8167    34.262    27.534
   209.290   211.562    -0.487    2.8167    34.262    27.534
   209.400   211.674    -0.487    2.8182    34.282    27.550
   209.510   211.785    -0.487    2.8182    34.282    27.550
   209.620   211.896    -0.477    2.8182    34.270    27.540
   209.730   212.007    -0.477    2.8182    34.270    27.540
   209.840   212.119    -0.477    2.8182    34.270    27.540
   209.950   212.230    -0.477    2.8182    34.270    27.540
   210.060   212.341    -0.477    2.8197    34.290    27.557
   210.170   212.452    -0.477    2.8197    34.290    27.556
   210.270   212.554    -0.477    2.8182    34.270    27.540
   210.380   212.665    -0.477    2.8197    34.290    27.556
   210.490   212.776    -0.487    2.8182    34.281    27.550
   210.600   212.887    -0.498    2.8167    34.273    27.544
   210.710   212.999    -0.498    2.8167    34.273    27.544
   210.820   213.110    -0.509    2.8167    34.285    27.554
   210.930   213.221    -0.519    2.8153    34.278    27.549
   211.040   213.332    -0.519    2.8167    34.297    27.564
   211.150   213.444    -0.519    2.8153    34.278    27.548
   211.260   213.555    -0.519    2.8167    34.296    27.564
   211.360   213.656    -0.519    2.8167    34.296    27.564
   211.470   213.767    -0.519    2.8167    34.296    27.563
   211.580   213.878    -0.509    2.8167    34.285    27.554
   211.690   213.990    -0.509    2.8167    34.285    27.554
   211.800   214.101    -0.498    2.8182    34.293    27.559
   211.910   214.212    -0.487    2.8197    34.300    27.565
   212.020   214.323    -0.477    2.8197    34.289    27.556
   212.130   214.435    -0.466    2.8212    34.296    27.561
   212.240   214.546    -0.466    2.8212    34.296    27.561
   212.350   214.657    -0.456    2.8226    34.304    27.567
   212.450   214.758    -0.456    2.8226    34.304    27.567
   212.560   214.870    -0.456    2.8226    34.304    27.567
   212.670   214.981    -0.445    2.8226    34.291    27.556
   212.780   215.092    -0.445    2.8241    34.311    27.572
   212.890   215.203    -0.434    2.8241    34.299    27.562
   213.000   215.315    -0.434    2.8256    34.319    27.578
   213.110   215.426    -0.434    2.8256    34.319    27.578
   213.220   215.537    -0.424    2.8270    34.326    27.583
   213.330   215.648    -0.424    2.8270    34.326    27.583
   213.430   215.750    -0.413    2.8270    34.314    27.573
   213.540   215.861    -0.413    2.8285    34.334    27.589
   213.650   215.972    -0.413    2.8285    34.334    27.589
   213.760   216.083    -0.413    2.8285    34.334    27.589
   213.870   216.195    -0.413    2.8285    34.333    27.589
   213.980   216.306    -0.402    2.8285    34.321    27.578
   214.090   216.417    -0.402    2.8300    34.341    27.594
   214.200   216.528    -0.402    2.8285    34.321    27.578
   214.310   216.640    -0.402    2.8300    34.341    27.594
   214.420   216.751    -0.413    2.8285    34.333    27.588
   214.520   216.852    -0.413    2.8300    34.353    27.605
   214.630   216.963    -0.413    2.8300    34.353    27.605
   214.740   217.074    -0.402    2.8300    34.341    27.594
   214.850   217.186    -0.402    2.8300    34.341    27.594
   214.960   217.297    -0.402    2.8300    34.340    27.594
   215.070   217.408    -0.392    2.8315    34.349    27.601
   215.180   217.520    -0.392    2.8315    34.349    27.600
   215.290   217.631    -0.392    2.8315    34.349    27.600
   215.400   217.742    -0.392    2.8315    34.349    27.600
   215.510   217.853    -0.392    2.8300    34.329    27.584
   215.610   217.954    -0.392    2.8315    34.349    27.600
   215.720   218.066    -0.392    2.8315    34.349    27.600
   215.830   218.177    -0.402    2.8315    34.360    27.610
   215.940   218.288    -0.402    2.8315    34.360    27.610
   216.050   218.399    -0.402    2.8315    34.360    27.610
   216.160   218.511    -0.392    2.8315    34.349    27.600
   216.270   218.622    -0.392    2.8315    34.348    27.600
   216.380   218.733    -0.392    2.8329    34.367    27.615
   216.490   218.844    -0.392    2.8329    34.367    27.615
   216.590   218.946    -0.392    2.8315    34.348    27.600
   216.700   219.057    -0.392    2.8329    34.367    27.615
   216.810   219.168    -0.392    2.8329    34.367    27.615
   216.920   219.279    -0.392    2.8329    34.367    27.615
   217.030   219.391    -0.381    2.8329    34.354    27.604
   217.140   219.502    -0.381    2.8329    34.354    27.604
   217.250   219.613    -0.381    2.8329    34.354    27.604
   217.360   219.724    -0.381    2.8329    34.354    27.604
   217.470   219.836    -0.381    2.8344    34.374    27.620
   217.580   219.947    -0.370    2.8344    34.362    27.610
   217.680   220.048    -0.370    2.8359    34.382    27.626
   217.790   220.159    -0.360    2.8359    34.370    27.616
   217.900   220.271    -0.360    2.8359    34.370    27.616
   218.010   220.382    -0.360    2.8359    34.370    27.616
   218.120   220.493    -0.349    2.8374    34.378    27.622
   218.230   220.604    -0.349    2.8359    34.358    27.605
   218.340   220.716    -0.349    2.8374    34.378    27.621
   218.450   220.827    -0.339    2.8374    34.366    27.612
   218.560   220.938    -0.339    2.8388    34.385    27.627
   218.660   221.039    -0.339    2.8388    34.385    27.627
   218.770   221.150    -0.339    2.8388    34.385    27.627
   218.880   221.262    -0.339    2.8388    34.385    27.627
   218.990   221.373    -0.339    2.8388    34.385    27.627
   219.100   221.484    -0.339    2.8388    34.385    27.627
   219.210   221.596    -0.339    2.8388    34.385    27.627
   219.320   221.707    -0.339    2.8388    34.384    27.627
   219.430   221.818    -0.328    2.8403    34.392    27.632
   219.540   221.929    -0.328    2.8403    34.392    27.632
   219.640   222.030    -0.317    2.8403    34.379    27.621
   219.750   222.142    -0.307    2.8418    34.388    27.628
   219.860   222.253    -0.307    2.8418    34.388    27.628
   219.970   222.364    -0.296    2.8432    34.394    27.632
   220.080   222.475    -0.296    2.8432    34.394    27.632
   220.190   222.587    -0.296    2.8432    34.394    27.632
   220.300   222.698    -0.296    2.8432    34.394    27.632
   220.410   222.809    -0.296    2.8432    34.394    27.632
   220.520   222.920    -0.296    2.8447    34.414    27.648
   220.630   223.032    -0.285    2.8432    34.382    27.622
   220.730   223.133    -0.285    2.8447    34.401    27.638
   220.840   223.244    -0.285    2.8447    34.401    27.638
   220.950   223.355    -0.285    2.8447    34.401    27.638
   221.060   223.467    -0.285    2.8447    34.401    27.638
   221.170   223.578    -0.285    2.8447    34.401    27.638
   221.280   223.689    -0.285    2.8447    34.401    27.637
   221.390   223.800    -0.285    2.8447    34.401    27.637
   221.500   223.912    -0.285    2.8447    34.401    27.637
   221.610   224.023    -0.285    2.8447    34.401    27.637
   221.710   224.124    -0.285    2.8447    34.401    27.637
   221.820   224.235    -0.285    2.8447    34.401    27.637
   221.930   224.347    -0.296    2.8447    34.413    27.648
   222.040   224.458    -0.296    2.8447    34.413    27.648
   222.150   224.569    -0.296    2.8447    34.413    27.648
   222.260   224.680    -0.296    2.8447    34.413    27.648
   222.370   224.792    -0.285    2.8447    34.400    27.637
   222.480   224.903    -0.285    2.8462    34.420    27.653
   222.590   225.014    -0.285    2.8462    34.420    27.653
   222.690   225.115    -0.285    2.8462    34.420    27.653
   222.800   225.227    -0.285    2.8462    34.420    27.653
   222.910   225.338    -0.285    2.8462    34.420    27.653
   223.020   225.449    -0.275    2.8462    34.409    27.643
   223.130   225.560    -0.275    2.8477    34.429    27.659
   223.240   225.672    -0.275    2.8477    34.429    27.659
   223.350   225.783    -0.275    2.8477    34.429    27.659
   223.460   225.894    -0.275    2.8477    34.429    27.659
   223.570   226.005    -0.264    2.8477    34.416    27.649
   223.670   226.107    -0.275    2.8477    34.428    27.659
   223.780   226.218    -0.264    2.8477    34.416    27.648
   223.890   226.329    -0.264    2.8477    34.416    27.648
   224.000   226.440    -0.275    2.8477    34.428    27.659
   224.110   226.552    -0.264    2.8491    34.434    27.663
   224.220   226.663    -0.264    2.8477    34.416    27.648
   224.330   226.774    -0.264    2.8491    34.434    27.663
   224.440   226.885    -0.264    2.8491    34.434    27.663
   224.550   226.997    -0.264    2.8491    34.434    27.663
   224.650   227.098    -0.264    2.8491    34.434    27.663
   224.760   227.209    -0.264    2.8491    34.434    27.663
   224.870   227.320    -0.264    2.8491    34.434    27.663
   224.980   227.432    -0.264    2.8491    34.434    27.663
   225.090   227.543    -0.264    2.8491    34.434    27.663
   225.200   227.654    -0.264    2.8491    34.434    27.663
   225.310   227.765    -0.264    2.8491    34.434    27.663
   225.420   227.877    -0.264    2.8491    34.434    27.663
   225.530   227.988    -0.264    2.8491    34.434    27.663
   225.630   228.089    -0.264    2.8491    34.434    27.663
   225.740   228.200    -0.264    2.8491    34.433    27.663
   225.850   228.311    -0.264    2.8506    34.453    27.679
   225.960   228.423    -0.254    2.8506    34.442    27.669
   226.070   228.534    -0.254    2.8506    34.442    27.669
   226.180   228.645    -0.254    2.8506    34.442    27.669
   226.290   228.757    -0.254    2.8506    34.442    27.669
   226.400   228.868    -0.254    2.8506    34.442    27.669
   226.510   228.979    -0.254    2.8506    34.442    27.669
   226.610   229.080    -0.243    2.8521    34.449    27.674
   226.720   229.191    -0.243    2.8521    34.449    27.674
   226.830   229.303    -0.243    2.8521    34.449    27.674
   226.940   229.414    -0.243    2.8521    34.449    27.674
   227.050   229.525    -0.243    2.8536    34.469    27.690
   227.160   229.636    -0.232    2.8521    34.436    27.663
   227.270   229.748    -0.232    2.8536    34.456    27.680
   227.380   229.859    -0.232    2.8536    34.456    27.680
   227.490   229.970    -0.232    2.8536    34.456    27.679
   227.590   230.071    -0.232    2.8536    34.456    27.679
   227.700   230.183    -0.232    2.8536    34.456    27.679
   227.810   230.294    -0.232    2.8536    34.456    27.679
   227.920   230.405    -0.232    2.8536    34.456    27.679
   228.030   230.516    -0.232    2.8536    34.456    27.679
   228.140   230.628    -0.222    2.8536    34.445    27.670
   228.250   230.739    -0.222    2.8550    34.463    27.685
   228.360   230.850    -0.222    2.8550    34.463    27.684
   228.470   230.962    -0.222    2.8550    34.463    27.684
   228.570   231.063    -0.222    2.8550    34.463    27.684
   228.680   231.174    -0.211    2.8550    34.450    27.674
   228.790   231.285    -0.211    2.8550    34.450    27.674
   228.900   231.396    -0.211    2.8550    34.450    27.674
   229.010   231.508    -0.211    2.8565    34.470    27.690
   229.120   231.619    -0.211    2.8565    34.470    27.690
   229.230   231.730    -0.211    2.8565    34.470    27.690
   229.340   231.841    -0.201    2.8565    34.459    27.680
   229.440   231.943    -0.201    2.8565    34.459    27.680
   229.550   232.054    -0.201    2.8565    34.459    27.680
   229.660   232.165    -0.201    2.8580    34.479    27.696
   229.770   232.276    -0.201    2.8580    34.479    27.696
   229.880   232.388    -0.201    2.8580    34.478    27.696
   229.990   232.499    -0.201    2.8580    34.478    27.696
   230.100   232.610    -0.190    2.8580    34.466    27.685
   230.210   232.721    -0.190    2.8580    34.466    27.685
   230.320   232.833    -0.190    2.8580    34.466    27.685
   230.420   232.934    -0.190    2.8594    34.484    27.700
   230.530   233.045    -0.190    2.8594    34.484    27.700
   230.640   233.156    -0.190    2.8580    34.466    27.685
   230.750   233.268    -0.190    2.8594    34.484    27.700
   230.860   233.379    -0.190    2.8594    34.484    27.700
   230.970   233.490    -0.190    2.8594    34.484    27.700
   231.080   233.601    -0.179    2.8594    34.472    27.689
   231.190   233.713    -0.179    2.8594    34.471    27.689
   231.300   233.824    -0.179    2.8594    34.471    27.689
   231.400   233.925    -0.179    2.8594    34.471    27.689
   231.510   234.036    -0.179    2.8594    34.471    27.689
   231.620   234.148    -0.179    2.8594    34.471    27.689
   231.730   234.259    -0.179    2.8609    34.491    27.705
   231.840   234.370    -0.179    2.8594    34.471    27.689
   231.950   234.481    -0.179    2.8594    34.471    27.689
   232.060   234.593    -0.169    2.8609    34.480    27.695
   232.170   234.704    -0.169    2.8609    34.480    27.695
   232.270   234.805    -0.169    2.8609    34.479    27.695
   232.380   234.916    -0.169    2.8609    34.479    27.695
   232.490   235.028    -0.158    2.8624    34.487    27.701
   232.600   235.139    -0.158    2.8624    34.487    27.700
   232.710   235.250    -0.158    2.8624    34.487    27.700
   232.820   235.361    -0.158    2.8624    34.487    27.700
   232.930   235.473    -0.158    2.8624    34.487    27.700
   233.040   235.584    -0.158    2.8624    34.487    27.700
   233.150   235.695    -0.158    2.8624    34.486    27.700
   233.250   235.796    -0.158    2.8624    34.486    27.700
   233.360   235.908    -0.158    2.8624    34.486    27.700
   233.470   236.019    -0.158    2.8624    34.486    27.700
   233.580   236.130    -0.148    2.8624    34.475    27.690
   233.690   236.241    -0.148    2.8624    34.475    27.690
   233.800   236.353    -0.148    2.8624    34.475    27.690
   233.910   236.464    -0.148    2.8639    34.495    27.706
   234.020   236.575    -0.148    2.8639    34.495    27.706
   234.130   236.686    -0.148    2.8639    34.495    27.706
   234.230   236.788    -0.148    2.8639    34.494    27.706
   234.340   236.899    -0.137    2.8639    34.482    27.696
   234.450   237.010    -0.137    2.8653    34.501    27.711
   234.560   237.121    -0.137    2.8639    34.482    27.695
   234.670   237.233    -0.137    2.8653    34.500    27.710
   234.780   237.344    -0.137    2.8653    34.500    27.710
   234.890   237.455    -0.137    2.8653    34.500    27.710
   235.000   237.567    -0.126    2.8653    34.488    27.700
   235.100   237.668    -0.126    2.8668    34.508    27.716
   235.210   237.779    -0.126    2.8668    34.508    27.716
   235.320   237.890    -0.116    2.8668    34.496    27.706
   235.430   238.001    -0.116    2.8668    34.496    27.706
   235.540   238.113    -0.116    2.8668    34.496    27.706
   235.650   238.224    -0.116    2.8668    34.496    27.706
   235.760   238.335    -0.116    2.8683    34.516    27.722
   235.870   238.447    -0.116    2.8683    34.516    27.722
   235.970   238.548    -0.116    2.8683    34.516    27.722
   236.080   238.659    -0.105    2.8683    34.503    27.711
   236.190   238.770    -0.105    2.8668    34.483    27.695
   236.300   238.881    -0.105    2.8683    34.503    27.711
   236.410   238.993    -0.105    2.8668    34.483    27.695
   236.520   239.104    -0.105    2.8683    34.503    27.711
   236.630   239.215    -0.105    2.8683    34.503    27.711
   236.740   239.327    -0.105    2.8683    34.503    27.711
   236.850   239.438    -0.105    2.8683    34.503    27.711
   236.950   239.539    -0.105    2.8683    34.503    27.711
   237.060   239.650    -0.105    2.8683    34.503    27.711
   237.170   239.761    -0.105    2.8683    34.503    27.711
   237.280   239.873    -0.105    2.8683    34.503    27.711
   237.390   239.984    -0.105    2.8683    34.503    27.711
   237.500   240.095    -0.095    2.8683    34.491    27.701
   237.610   240.207    -0.105    2.8698    34.522    27.727
   237.720   240.318    -0.095    2.8698    34.511    27.717
   237.820   240.419    -0.095    2.8698    34.511    27.717
   237.930   240.530    -0.095    2.8698    34.511    27.717
   238.040   240.641    -0.095    2.8698    34.511    27.717
   238.150   240.753    -0.095    2.8698    34.511    27.717
   238.260   240.864    -0.095    2.8698    34.511    27.717
   238.370   240.975    -0.095    2.8698    34.511    27.717
   238.480   241.087    -0.084    2.8712    34.517    27.721
   238.590   241.198    -0.084    2.8712    34.517    27.721
   238.690   241.299    -0.084    2.8712    34.517    27.721
   238.800   241.410    -0.073    2.8712    34.504    27.710
   238.910   241.522    -0.084    2.8712    34.516    27.721
   239.020   241.633    -0.073    2.8712    34.504    27.710
   239.130   241.744    -0.073    2.8712    34.504    27.710
   239.240   241.855    -0.073    2.8712    34.504    27.710
   239.350   241.967    -0.073    2.8727    34.524    27.726
   239.460   242.078    -0.073    2.8712    34.504    27.710
   239.570   242.189    -0.073    2.8712    34.504    27.710
   239.670   242.290    -0.073    2.8712    34.504    27.710
   239.780   242.402    -0.073    2.8727    34.523    27.726
   239.890   242.513    -0.073    2.8727    34.523    27.726
   240.000   242.624    -0.073    2.8727    34.523    27.726
   240.110   242.735    -0.063    2.8727    34.512    27.716
   240.220   242.847    -0.063    2.8727    34.512    27.716
   240.330   242.958    -0.063    2.8727    34.512    27.716
   240.440   243.069    -0.063    2.8727    34.512    27.716
   240.540   243.170    -0.063    2.8727    34.512    27.716
   240.650   243.282    -0.063    2.8742    34.532    27.732
   240.760   243.393    -0.063    2.8727    34.512    27.716
   240.870   243.504    -0.063    2.8727    34.511    27.716
   240.980   243.615    -0.063    2.8742    34.531    27.732
   241.090   243.727    -0.063    2.8727    34.511    27.716
   241.200   243.838    -0.063    2.8727    34.511    27.715
   241.310   243.949    -0.063    2.8727    34.511    27.715
   241.410   244.050    -0.063    2.8742    34.531    27.731
   241.520   244.162    -0.052    2.8742    34.519    27.721
   241.630   244.273    -0.063    2.8742    34.531    27.731
   241.740   244.384    -0.052    2.8742    34.518    27.721
   241.850   244.495    -0.052    2.8742    34.518    27.721
   241.960   244.607    -0.063    2.8742    34.531    27.731
   242.070   244.718    -0.052    2.8742    34.518    27.721
   242.180   244.829    -0.052    2.8742    34.518    27.720
   242.280   244.930    -0.052    2.8742    34.518    27.720
   242.390   245.042    -0.052    2.8742    34.518    27.720
   242.500   245.153    -0.052    2.8742    34.518    27.720
   242.610   245.264    -0.052    2.8742    34.518    27.720
   242.720   245.375    -0.052    2.8742    34.518    27.720
   242.830   245.487    -0.052    2.8742    34.518    27.720
   242.940   245.598    -0.052    2.8742    34.518    27.720
   243.050   245.709    -0.052    2.8742    34.518    27.720
   243.150   245.810    -0.052    2.8756    34.536    27.735
   243.260   245.922    -0.052    2.8742    34.518    27.720
   243.370   246.033    -0.052    2.8742    34.517    27.720
   243.480   246.144    -0.052    2.8756    34.536    27.735
   243.590   246.255    -0.052    2.8756    34.536    27.735
   243.700   246.367    -0.042    2.8756    34.525    27.725
   243.810   246.478    -0.052    2.8756    34.536    27.735
   243.920   246.589    -0.042    2.8756    34.524    27.725
   244.020   246.690    -0.042    2.8756    34.524    27.725
   244.130   246.802    -0.052    2.8756    34.536    27.735
   244.240   246.913    -0.042    2.8756    34.524    27.725
   244.350   247.024    -0.042    2.8756    34.524    27.725
   244.460   247.136    -0.042    2.8756    34.524    27.725
   244.570   247.247    -0.042    2.8756    34.524    27.725
   244.680   247.358    -0.042    2.8756    34.524    27.725
   244.790   247.469    -0.042    2.8756    34.524    27.725
   244.890   247.570    -0.042    2.8756    34.524    27.725
   245.000   247.682    -0.042    2.8756    34.524    27.724
   245.110   247.793    -0.042    2.8756    34.524    27.724
   245.220   247.904    -0.042    2.8756    34.524    27.724
   245.330   248.016    -0.042    2.8756    34.524    27.724
   245.440   248.127    -0.042    2.8756    34.523    27.724
   245.550   248.238    -0.042    2.8756    34.523    27.724
   245.660   248.349    -0.042    2.8756    34.523    27.724
   245.760   248.451    -0.042    2.8756    34.523    27.724
   245.870   248.562    -0.042    2.8771    34.543    27.740
   245.980   248.673    -0.042    2.8771    34.543    27.740
   246.090   248.784    -0.031    2.8771    34.531    27.729
   246.200   248.896    -0.031    2.8771    34.531    27.729
   246.310   249.007    -0.031    2.8771    34.530    27.729
   246.420   249.118    -0.031    2.8771    34.530    27.729
   246.530   249.229    -0.031    2.8771    34.530    27.729
   246.630   249.331    -0.031    2.8771    34.530    27.729
   246.740   249.442    -0.031    2.8771    34.530    27.729
   246.850   249.553    -0.031    2.8771    34.530    27.729
   246.960   249.664    -0.031    2.8786    34.550    27.745
   247.070   249.776    -0.031    2.8786    34.550    27.745
   247.180   249.887    -0.021    2.8786    34.539    27.735
   247.290   249.998    -0.021    2.8786    34.538    27.735
   247.400   250.110    -0.021    2.8786    34.538    27.735
   247.500   250.211    -0.021    2.8786    34.538    27.735
   247.610   250.322    -0.021    2.8786    34.538    27.735
   247.720   250.433    -0.021    2.8786    34.538    27.735
   247.830   250.544    -0.021    2.8786    34.538    27.735
   247.940   250.656    -0.021    2.8786    34.538    27.735
   248.050   250.767    -0.021    2.8786    34.538    27.735
   248.160   250.878    -0.021    2.8786    34.538    27.735
   248.270   250.990    -0.021    2.8786    34.538    27.735
   248.370   251.091    -0.010    2.8786    34.525    27.724
   248.480   251.202    -0.021    2.8786    34.538    27.735
   248.590   251.313    -0.010    2.8801    34.545    27.740
   248.700   251.425    -0.010    2.8801    34.545    27.740
   248.810   251.536    -0.010    2.8786    34.525    27.724
   248.920   251.647    -0.010    2.8801    34.545    27.740
   249.030   251.758    -0.010    2.8801    34.545    27.740
   249.140   251.870     0.001    2.8801    34.532    27.729
   249.240   251.971     0.001    2.8801    34.532    27.729
   249.350   252.082     0.001    2.8801    34.532    27.729
   249.460   252.193     0.001    2.8815    34.551    27.744
   249.570   252.305     0.001    2.8815    34.551    27.744
   249.680   252.416     0.001    2.8815    34.551    27.744
   249.790   252.527     0.001    2.8815    34.551    27.744
   249.900   252.638     0.011    2.8815    34.539    27.734
   250.000   252.740     0.011    2.8815    34.539    27.734
   250.110   252.851     0.011    2.8830    34.559    27.750
   250.220   252.962     0.011    2.8815    34.539    27.734
   250.330   253.073     0.011    2.8830    34.559    27.750
   250.440   253.185     0.011    2.8830    34.559    27.750
   250.550   253.296     0.022    2.8830    34.546    27.739
   250.660   253.407     0.011    2.8830    34.559    27.750
   250.770   253.519     0.022    2.8830    34.546    27.739
   250.870   253.620     0.022    2.8830    34.546    27.739
   250.980   253.731     0.022    2.8830    34.546    27.739
   251.090   253.842     0.022    2.8830    34.546    27.739
   251.200   253.953     0.022    2.8830    34.546    27.739
   251.310   254.065     0.022    2.8830    34.546    27.739
   251.420   254.176     0.022    2.8830    34.546    27.739
   251.530   254.287     0.022    2.8845    34.566    27.755
   251.640   254.399     0.022    2.8845    34.566    27.755
   251.740   254.500     0.022    2.8845    34.565    27.755
   251.850   254.611     0.032    2.8845    34.554    27.745
   251.960   254.722     0.032    2.8845    34.554    27.745
   252.070   254.834     0.032    2.8845    34.554    27.745
   252.180   254.945     0.032    2.8845    34.554    27.745
   252.290   255.056     0.032    2.8845    34.554    27.745
   252.400   255.167     0.032    2.8845    34.554    27.745
   252.510   255.279     0.032    2.8845    34.554    27.745
   252.610   255.380     0.032    2.8845    34.554    27.745
   252.720   255.491     0.032    2.8845    34.554    27.745
   252.830   255.602     0.032    2.8860    34.573    27.761
   252.940   255.714     0.032    2.8845    34.553    27.745
   253.050   255.825     0.032    2.8845    34.553    27.745
   253.160   255.936     0.032    2.8845    34.553    27.744
   253.270   256.047     0.032    2.8845    34.553    27.744
   253.370   256.149     0.032    2.8860    34.573    27.760
   253.480   256.260     0.032    2.8845    34.553    27.744
   253.590   256.371     0.032    2.8845    34.553    27.744
   253.700   256.482     0.032    2.8845    34.553    27.744
   253.810   256.594     0.032    2.8845    34.553    27.744
   253.920   256.705     0.032    2.8845    34.553    27.744
   254.030   256.816     0.032    2.8860    34.573    27.760
   254.140   256.928     0.032    2.8845    34.553    27.744
   254.240   257.029     0.032    2.8860    34.573    27.760
   254.350   257.140     0.032    2.8860    34.572    27.760
   254.460   257.251     0.032    2.8845    34.553    27.744
   254.570   257.363     0.032    2.8860    34.572    27.760
   254.680   257.474     0.032    2.8845    34.552    27.744
   254.790   257.585     0.032    2.8845    34.552    27.744
   254.900   257.696     0.032    2.8860    34.572    27.760
   255.000   257.798     0.032    2.8860    34.572    27.760
   255.110   257.909     0.032    2.8860    34.572    27.760
   255.220   258.020     0.032    2.8860    34.572    27.759
   255.330   258.131     0.032    2.8860    34.572    27.759
   255.440   258.243     0.032    2.8860    34.572    27.759
   255.550   258.354     0.032    2.8860    34.572    27.759
   255.660   258.465     0.032    2.8860    34.572    27.759
   255.770   258.576     0.032    2.8860    34.572    27.759
   255.870   258.678     0.032    2.8860    34.572    27.759
   255.980   258.789     0.032    2.8860    34.571    27.759
   256.090   258.900     0.032    2.8860    34.571    27.759
   256.200   259.011     0.032    2.8860    34.571    27.759
   256.310   259.123     0.032    2.8860    34.571    27.759
   256.420   259.234     0.032    2.8860    34.571    27.759
   256.530   259.345     0.032    2.8860    34.571    27.759
   256.630   259.446     0.032    2.8860    34.571    27.759
   256.740   259.558     0.032    2.8860    34.571    27.759
   256.850   259.669     0.032    2.8860    34.571    27.759
   256.960   259.780     0.032    2.8860    34.571    27.759
   257.070   259.892     0.032    2.8860    34.571    27.759
   257.180   260.003     0.032    2.8860    34.571    27.759
   257.290   260.114     0.043    2.8860    34.558    27.748
   257.400   260.225     0.043    2.8860    34.558    27.748
   257.500   260.327     0.043    2.8860    34.558    27.748
   257.610   260.438     0.043    2.8874    34.577    27.763
   257.720   260.549     0.043    2.8874    34.577    27.763
   257.830   260.660     0.043    2.8874    34.576    27.763
   257.940   260.772     0.043    2.8874    34.576    27.763
   258.050   260.883     0.043    2.8874    34.576    27.762
   258.160   260.994     0.043    2.8874    34.576    27.762
   258.260   261.095     0.043    2.8874    34.576    27.762
   258.370   261.207     0.053    2.8874    34.565    27.753
   258.480   261.318     0.043    2.8874    34.576    27.762
   258.590   261.429     0.053    2.8874    34.565    27.753
   258.700   261.541     0.053    2.8874    34.565    27.753
   258.810   261.652     0.053    2.8874    34.565    27.752
   258.920   261.763     0.053    2.8874    34.565    27.752
   259.030   261.874     0.053    2.8889    34.584    27.768
   259.130   261.976     0.053    2.8889    34.584    27.768
   259.240   262.087     0.053    2.8889    34.584    27.768
   259.350   262.198     0.053    2.8889    34.584    27.768
   259.460   262.309     0.053    2.8889    34.584    27.768
   259.570   262.421     0.053    2.8889    34.584    27.768
   259.680   262.532     0.053    2.8889    34.584    27.768
   259.790   262.643     0.053    2.8889    34.584    27.768
   259.890   262.744     0.053    2.8889    34.584    27.768
   260.000   262.856     0.053    2.8889    34.584    27.768
   260.110   262.967     0.053    2.8889    34.584    27.768
   260.220   263.078     0.053    2.8889    34.584    27.768
   260.330   263.189     0.053    2.8889    34.583    27.768
   260.440   263.301     0.053    2.8889    34.583    27.768
   260.550   263.412     0.053    2.8889    34.583    27.768
   260.660   263.523     0.053    2.8889    34.583    27.768
   260.760   263.624     0.064    2.8889    34.571    27.757
   260.870   263.736     0.064    2.8904    34.591    27.773
   260.980   263.847     0.064    2.8904    34.591    27.773
   261.090   263.958     0.064    2.8904    34.590    27.773
   261.200   264.070     0.064    2.8904    34.590    27.773
   261.310   264.181     0.064    2.8904    34.590    27.773
   261.420   264.292     0.064    2.8904    34.590    27.773
   261.520   264.393     0.064    2.8904    34.590    27.773
   261.630   264.505     0.074    2.8904    34.579    27.763
   261.740   264.616     0.064    2.8904    34.590    27.772
   261.850   264.727     0.074    2.8919    34.599    27.779
   261.960   264.838     0.074    2.8919    34.599    27.779
   262.070   264.950     0.074    2.8919    34.598    27.779
   262.180   265.061     0.074    2.8919    34.598    27.779
   262.280   265.162     0.074    2.8919    34.598    27.779
   262.390   265.273     0.074    2.8919    34.598    27.779
   262.500   265.385     0.074    2.8919    34.598    27.778
   262.610   265.496     0.074    2.8919    34.598    27.778
   262.720   265.607     0.085    2.8919    34.586    27.768
   262.830   265.719     0.074    2.8919    34.598    27.778
   262.940   265.830     0.085    2.8919    34.586    27.768
   263.040   265.931     0.085    2.8919    34.585    27.768
   263.150   266.042     0.085    2.8933    34.604    27.783
   263.260   266.154     0.085    2.8933    34.604    27.782
   263.370   266.265     0.085    2.8919    34.585    27.767
   263.480   266.376     0.085    2.8933    34.604    27.782
   263.590   266.487     0.085    2.8933    34.604    27.782
   263.700   266.599     0.085    2.8933    34.604    27.782
   263.810   266.710     0.096    2.8933    34.591    27.772
   263.910   266.811     0.085    2.8933    34.603    27.782
   264.020   266.922     0.096    2.8933    34.591    27.771
   264.130   267.034     0.096    2.8933    34.591    27.771
   264.240   267.145     0.096    2.8933    34.591    27.771
   264.350   267.256     0.096    2.8933    34.591    27.771
   264.460   267.368     0.096    2.8933    34.591    27.771
   264.570   267.479     0.096    2.8933    34.591    27.771
   264.670   267.580     0.096    2.8933    34.591    27.771
   264.780   267.691     0.096    2.8933    34.591    27.771
   264.890   267.803     0.096    2.8933    34.590    27.771
   265.000   267.914     0.096    2.8933    34.590    27.771
   265.110   268.025     0.096    2.8933    34.590    27.771
   265.220   268.136     0.096    2.8933    34.590    27.771
   265.330   268.248     0.096    2.8948    34.610    27.787
   265.430   268.349     0.096    2.8933    34.590    27.771
   265.540   268.460     0.096    2.8948    34.610    27.787
   265.650   268.571     0.096    2.8948    34.610    27.787
   265.760   268.683     0.096    2.8948    34.610    27.787
   265.870   268.794     0.096    2.8948    34.610    27.787
   265.980   268.905     0.096    2.8948    34.610    27.787
   266.090   269.017     0.096    2.8948    34.610    27.786
   266.190   269.118     0.106    2.8948    34.598    27.777
   266.300   269.229     0.106    2.8948    34.598    27.777
   266.410   269.340     0.106    2.8948    34.598    27.777
   266.520   269.452     0.106    2.8963    34.618    27.793
   266.630   269.563     0.106    2.8963    34.618    27.793
   266.740   269.674     0.106    2.8963    34.618    27.793
   266.850   269.785     0.106    2.8963    34.618    27.792
   266.950   269.887     0.106    2.8963    34.618    27.792
   267.060   269.998     0.117    2.8963    34.605    27.782
   267.170   270.109     0.117    2.8977    34.624    27.797
   267.280   270.220     0.117    2.8977    34.623    27.797
   267.390   270.332     0.127    2.8977    34.612    27.787
   267.500   270.443     0.127    2.8977    34.612    27.787
   267.610   270.554     0.127    2.8977    34.612    27.787
   267.710   270.655     0.127    2.8977    34.612    27.787
   267.820   270.767     0.127    2.8977    34.612    27.787
   267.930   270.878     0.127    2.8977    34.612    27.787
   268.040   270.989     0.127    2.8977    34.612    27.787
   268.150   271.101     0.127    2.8992    34.631    27.802
   268.260   271.212     0.127    2.8992    34.631    27.802
   268.370   271.323     0.127    2.8977    34.612    27.786
   268.470   271.424     0.127    2.8977    34.611    27.786
   268.580   271.536     0.127    2.8977    34.611    27.786
   268.690   271.647     0.138    2.8992    34.619    27.792
   268.800   271.758     0.138    2.8992    34.619    27.792
   268.910   271.869     0.138    2.8992    34.619    27.792
   269.020   271.981     0.138    2.8992    34.619    27.791
   269.130   272.092     0.138    2.8992    34.618    27.791
   269.230   272.193     0.138    2.8992    34.618    27.791
   269.340   272.304     0.138    2.8992    34.618    27.791
   269.450   272.416     0.138    2.8992    34.618    27.791
   269.560   272.527     0.138    2.8992    34.618    27.791
   269.670   272.638     0.138    2.8992    34.618    27.791
   269.780   272.750     0.138    2.9007    34.638    27.807
   269.890   272.861     0.138    2.8992    34.618    27.791
   269.990   272.962     0.138    2.8992    34.618    27.791
   270.100   273.073     0.148    2.8992    34.607    27.781
   270.210   273.185     0.138    2.9007    34.638    27.807
   270.320   273.296     0.138    2.8992    34.618    27.791
   270.430   273.407     0.138    2.8992    34.618    27.791
   270.540   273.518     0.138    2.8992    34.618    27.791
   270.650   273.630     0.138    2.8992    34.618    27.791
   270.750   273.731     0.138    2.8992    34.617    27.791
   270.860   273.842     0.138    2.8992    34.617    27.791
   270.970   273.953     0.138    2.8992    34.617    27.791
   271.080   274.065     0.148    2.9007    34.626    27.797
   271.190   274.176     0.138    2.8992    34.617    27.790
   271.300   274.287     0.138    2.9007    34.637    27.806
   271.410   274.399     0.148    2.9007    34.626    27.797
   271.510   274.500     0.138    2.9007    34.637    27.806
   271.620   274.611     0.148    2.9007    34.625    27.797
   271.730   274.722     0.148    2.9007    34.625    27.796
   271.840   274.834     0.148    2.9007    34.625    27.796
   271.950   274.945     0.148    2.9007    34.625    27.796
   272.060   275.056     0.148    2.9007    34.625    27.796
   272.170   275.167     0.159    2.9007    34.613    27.786
   272.270   275.269     0.159    2.9007    34.613    27.786
   272.380   275.380     0.159    2.9022    34.632    27.802
   272.490   275.491     0.159    2.9022    34.632    27.801
   272.600   275.603     0.159    2.9007    34.612    27.785
   272.710   275.714     0.159    2.9022    34.632    27.801
   272.820   275.825     0.159    2.9022    34.632    27.801
   272.930   275.936     0.159    2.9022    34.632    27.801
   273.030   276.038     0.159    2.9022    34.632    27.801
   273.140   276.149     0.159    2.9022    34.632    27.801
   273.250   276.260     0.169    2.9022    34.621    27.791
   273.360   276.371     0.169    2.9022    34.621    27.791
   273.470   276.483     0.169    2.9022    34.620    27.791
   273.580   276.594     0.169    2.9022    34.620    27.791
   273.690   276.705     0.169    2.9022    34.620    27.791
   273.790   276.806     0.169    2.9036    34.639    27.806
   273.900   276.918     0.169    2.9022    34.620    27.791
   274.010   277.029     0.169    2.9036    34.639    27.806
   274.120   277.140     0.169    2.9036    34.639    27.806
   274.230   277.252     0.169    2.9036    34.638    27.806
   274.340   277.363     0.169    2.9036    34.638    27.806
   274.450   277.474     0.169    2.9036    34.638    27.806
   274.550   277.575     0.169    2.9036    34.638    27.806
   274.660   277.687     0.169    2.9036    34.638    27.806
   274.770   277.798     0.169    2.9036    34.638    27.806
   274.880   277.909     0.169    2.9036    34.638    27.806
   274.990   278.020     0.169    2.9036    34.638    27.806
   275.100   278.132     0.169    2.9036    34.638    27.805
   275.210   278.243     0.169    2.9036    34.638    27.805
   275.310   278.344     0.169    2.9036    34.638    27.805
   275.420   278.455     0.169    2.9036    34.638    27.805
   275.530   278.567     0.169    2.9036    34.638    27.805
   275.640   278.678     0.169    2.9036    34.638    27.805
   275.750   278.789     0.169    2.9036    34.638    27.805
   275.860   278.901     0.169    2.9036    34.637    27.805
   275.970   279.012     0.180    2.9036    34.625    27.794
   276.070   279.113     0.180    2.9036    34.625    27.794
   276.180   279.224     0.169    2.9051    34.657    27.821
   276.290   279.336     0.180    2.9051    34.645    27.810
   276.400   279.447     0.180    2.9051    34.645    27.810
   276.510   279.558     0.180    2.9051    34.644    27.810
   276.620   279.670     0.180    2.9051    34.644    27.810
   276.720   279.771     0.180    2.9051    34.644    27.810
   276.830   279.882     0.180    2.9051    34.644    27.810
   276.940   279.993     0.180    2.9051    34.644    27.810
   277.050   280.105     0.180    2.9051    34.644    27.810
   277.160   280.216     0.180    2.9051    34.644    27.810
   277.270   280.327     0.180    2.9051    34.644    27.810
   277.380   280.438     0.180    2.9051    34.644    27.810
   277.480   280.540     0.180    2.9066    34.664    27.826
   277.590   280.651     0.180    2.9051    34.644    27.810
   277.700   280.762     0.180    2.9051    34.644    27.810
   277.810   280.873     0.180    2.9051    34.644    27.809
   277.920   280.985     0.180    2.9051    34.644    27.809
   278.030   281.096     0.180    2.9066    34.663    27.825
   278.140   281.207     0.190    2.9051    34.632    27.800
   278.240   281.309     0.190    2.9066    34.652    27.816
   278.350   281.420     0.190    2.9066    34.652    27.816
   278.460   281.531     0.190    2.9066    34.652    27.815
   278.570   281.642     0.190    2.9066    34.652    27.815
   278.680   281.754     0.190    2.9066    34.652    27.815
   278.790   281.865     0.201    2.9066    34.639    27.805
   278.900   281.976     0.190    2.9066    34.652    27.815
   279.000   282.077     0.201    2.9066    34.639    27.805
   279.110   282.189     0.201    2.9081    34.659    27.821
   279.220   282.300     0.201    2.9066    34.639    27.805
   279.330   282.411     0.201    2.9081    34.659    27.820
   279.440   282.523     0.201    2.9081    34.659    27.820
   279.550   282.634     0.201    2.9081    34.659    27.820
   279.650   282.735     0.201    2.9066    34.639    27.804
   279.760   282.846     0.201    2.9066    34.639    27.804
   279.870   282.958     0.201    2.9081    34.658    27.820
   279.980   283.069     0.201    2.9081    34.658    27.820
   280.090   283.180     0.201    2.9081    34.658    27.820
   280.200   283.291     0.201    2.9081    34.658    27.820
   280.310   283.403     0.201    2.9081    34.658    27.820
   280.410   283.504     0.201    2.9081    34.658    27.820
   280.520   283.615     0.201    2.9081    34.658    27.820
   280.630   283.727     0.201    2.9081    34.658    27.820
   280.740   283.838     0.201    2.9081    34.658    27.820
   280.850   283.949     0.201    2.9081    34.658    27.820
   280.960   284.060     0.201    2.9081    34.658    27.820
   281.070   284.172     0.201    2.9081    34.658    27.820
   281.170   284.273     0.201    2.9081    34.658    27.819
   281.280   284.384     0.201    2.9081    34.657    27.819
   281.390   284.495     0.201    2.9081    34.657    27.819
   281.500   284.607     0.201    2.9081    34.657    27.819
   281.610   284.718     0.201    2.9081    34.657    27.819
   281.720   284.829     0.201    2.9081    34.657    27.819
   281.820   284.930     0.201    2.9081    34.657    27.819
   281.930   285.042     0.201    2.9081    34.657    27.819
   282.040   285.153     0.201    2.9081    34.657    27.819
   282.150   285.264     0.201    2.9081    34.657    27.819
   282.260   285.376     0.201    2.9081    34.657    27.819
   282.370   285.487     0.201    2.9081    34.657    27.819
   282.480   285.598     0.211    2.9081    34.645    27.809
   282.580   285.699     0.211    2.9081    34.645    27.809
   282.690   285.811     0.201    2.9095    34.675    27.834
   282.800   285.922     0.201    2.9081    34.657    27.819
   282.910   286.033     0.201    2.9081    34.656    27.819
   283.020   286.145     0.201    2.9081    34.656    27.819
   283.130   286.256     0.201    2.9081    34.656    27.819
   283.230   286.357     0.201    2.9081    34.656    27.818
   283.340   286.468     0.201    2.9081    34.656    27.818
   283.450   286.580     0.201    2.9081    34.656    27.818
   283.560   286.691     0.201    2.9081    34.656    27.818
   283.670   286.802     0.201    2.9095    34.674    27.833
   283.780   286.913     0.201    2.9095    34.674    27.833
   283.890   287.025     0.211    2.9095    34.663    27.823
   283.990   287.126     0.211    2.9095    34.663    27.823
   284.100   287.237     0.211    2.9095    34.663    27.823
   284.210   287.349     0.211    2.9095    34.663    27.823
   284.320   287.460     0.211    2.9095    34.663    27.823
   284.430   287.571     0.222    2.9110    34.670    27.828
   284.540   287.682     0.222    2.9110    34.670    27.828
   284.650   287.794     0.233    2.9110    34.658    27.818
   284.750   287.895     0.233    2.9110    34.658    27.818
   284.860   288.006     0.233    2.9110    34.657    27.818
   284.970   288.117     0.233    2.9125    34.677    27.834
   285.080   288.229     0.233    2.9125    34.677    27.833
   285.190   288.340     0.243    2.9125    34.666    27.824
   285.300   288.451     0.243    2.9125    34.666    27.824
   285.400   288.553     0.243    2.9125    34.666    27.824
   285.510   288.664     0.243    2.9125    34.666    27.824
   285.620   288.775     0.243    2.9125    34.665    27.824
   285.730   288.886     0.243    2.9125    34.665    27.824
   285.840   288.998     0.243    2.9125    34.665    27.823
   285.950   289.109     0.243    2.9125    34.665    27.823
   286.060   289.220     0.254    2.9139    34.671    27.828
   286.160   289.321     0.243    2.9139    34.684    27.838
   286.270   289.433     0.254    2.9139    34.671    27.828
   286.380   289.544     0.254    2.9139    34.671    27.827
   286.490   289.655     0.254    2.9139    34.671    27.827
   286.600   289.767     0.254    2.9139    34.671    27.827
   286.710   289.878     0.254    2.9139    34.671    27.827
   286.810   289.979     0.254    2.9139    34.671    27.827
   286.920   290.090     0.254    2.9139    34.671    27.827
   287.030   290.202     0.254    2.9139    34.671    27.827
   287.140   290.313     0.254    2.9139    34.671    27.827
   287.250   290.424     0.254    2.9139    34.671    27.827
   287.360   290.536     0.254    2.9139    34.670    27.827
   287.470   290.647     0.254    2.9139    34.670    27.827
   287.680   290.859     0.254    2.9139    34.670    27.827
   287.790   290.971     0.254    2.9154    34.690    27.843
   287.900   291.082     0.264    2.9154    34.679    27.833
   288.010   291.193     0.264    2.9154    34.679    27.833
   288.120   291.304     0.264    2.9154    34.678    27.833
   288.330   291.517     0.264    2.9154    34.678    27.833
   288.440   291.628     0.264    2.9154    34.678    27.833
   288.550   291.740     0.264    2.9154    34.678    27.833
   288.660   291.851     0.264    2.9154    34.678    27.833
   288.770   291.962     0.264    2.9154    34.678    27.833
   288.870   292.063     0.264    2.9154    34.678    27.833
   288.980   292.175     0.264    2.9154    34.678    27.832
   289.090   292.286     0.275    2.9154    34.665    27.822
   289.200   292.397     0.264    2.9154    34.678    27.832
   289.310   292.508     0.275    2.9169    34.685    27.838
   289.420   292.620     0.275    2.9169    34.685    27.838
   289.530   292.731     0.275    2.9154    34.665    27.822
   289.630   292.832     0.275    2.9169    34.685    27.837
   289.740   292.944     0.275    2.9169    34.685    27.837
   289.850   293.055     0.275    2.9169    34.685    27.837
   289.960   293.166     0.275    2.9169    34.685    27.837
   290.070   293.277     0.275    2.9169    34.685    27.837
   290.180   293.389     0.275    2.9169    34.685    27.837
   290.280   293.490     0.275    2.9169    34.684    27.837
   290.390   293.601     0.275    2.9169    34.684    27.837
   290.500   293.713     0.275    2.9169    34.684    27.837
   290.610   293.824     0.285    2.9169    34.673    27.827
   290.720   293.935     0.275    2.9169    34.684    27.837
   290.830   294.046     0.275    2.9169    34.684    27.837
   290.940   294.158     0.285    2.9169    34.673    27.827
   291.040   294.259     0.285    2.9169    34.673    27.827
   291.150   294.370     0.285    2.9169    34.673    27.827
   291.260   294.481     0.285    2.9169    34.673    27.827
   291.370   294.593     0.285    2.9169    34.673    27.827
   291.480   294.704     0.285    2.9169    34.673    27.827
   291.590   294.815     0.285    2.9184    34.692    27.843
   291.690   294.917     0.285    2.9184    34.692    27.843
   291.800   295.028     0.285    2.9184    34.692    27.843
   291.910   295.139     0.285    2.9184    34.692    27.843
   292.020   295.250     0.285    2.9184    34.692    27.843
   292.130   295.362     0.285    2.9184    34.692    27.842
   292.240   295.473     0.285    2.9184    34.692    27.842
   292.340   295.574     0.296    2.9184    34.679    27.832
   292.450   295.685     0.285    2.9184    34.692    27.842
   292.560   295.797     0.296    2.9184    34.679    27.832
   292.670   295.908     0.285    2.9184    34.691    27.842
   292.780   296.019     0.296    2.9184    34.679    27.832
   292.890   296.131     0.296    2.9184    34.679    27.832
   292.990   296.232     0.296    2.9184    34.679    27.831
   293.100   296.343     0.296    2.9184    34.679    27.831
   293.210   296.454     0.296    2.9184    34.679    27.831
   293.320   296.566     0.296    2.9198    34.697    27.846
   293.430   296.677     0.296    2.9198    34.697    27.846
   293.540   296.788     0.296    2.9198    34.697    27.846
   293.650   296.900     0.296    2.9198    34.697    27.846
   293.750   297.001     0.296    2.9198    34.697    27.846
   293.860   297.112     0.296    2.9198    34.697    27.846
   293.970   297.223     0.306    2.9198    34.685    27.836
   294.080   297.335     0.296    2.9198    34.697    27.846
   294.190   297.446     0.306    2.9198    34.685    27.836
   294.400   297.658     0.306    2.9198    34.685    27.836
   294.510   297.770     0.306    2.9198    34.685    27.836
   294.730   297.992     0.306    2.9213    34.705    27.852
   294.840   298.104     0.306    2.9213    34.705    27.852
   294.950   298.215     0.306    2.9213    34.705    27.852
   295.050   298.316     0.306    2.9213    34.705    27.852
   295.270   298.539     0.317    2.9213    34.692    27.841
   295.380   298.650     0.317    2.9213    34.692    27.841
   295.490   298.761     0.317    2.9213    34.692    27.841
   295.600   298.873     0.317    2.9213    34.692    27.841
   295.700   298.974     0.317    2.9213    34.692    27.841
   295.810   299.085     0.317    2.9213    34.692    27.841
   295.920   299.196     0.317    2.9213    34.692    27.841
   296.030   299.308     0.317    2.9213    34.692    27.840
   296.140   299.419     0.317    2.9228    34.711    27.856
   296.250   299.530     0.317    2.9228    34.711    27.856
   296.360   299.642     0.327    2.9228    34.700    27.847
   296.460   299.743     0.327    2.9228    34.700    27.846
   296.570   299.854     0.327    2.9228    34.700    27.846
   296.680   299.965     0.327    2.9228    34.700    27.846
   296.790   300.077     0.327    2.9228    34.700    27.846
   296.900   300.188     0.327    2.9228    34.699    27.846
   297.010   300.299     0.327    2.9228    34.699    27.846
   297.110   300.400     0.327    2.9228    34.699    27.846
   297.220   300.512     0.327    2.9228    34.699    27.846
   297.330   300.623     0.327    2.9228    34.699    27.846
   297.440   300.734     0.327    2.9228    34.699    27.846
   297.550   300.846     0.327    2.9228    34.699    27.846
   297.660   300.957     0.327    2.9243    34.719    27.862
   297.760   301.058     0.338    2.9243    34.706    27.851
   297.870   301.169     0.338    2.9243    34.706    27.851
   297.980   301.281     0.338    2.9243    34.706    27.851
   298.200   301.503     0.338    2.9243    34.706    27.851
   298.310   301.615     0.338    2.9243    34.706    27.851
   298.410   301.716     0.338    2.9243    34.706    27.851
   298.520   301.827     0.338    2.9243    34.706    27.851
   298.630   301.938     0.338    2.9243    34.706    27.851
   298.740   302.050     0.348    2.9243    34.694    27.841
   298.850   302.161     0.348    2.9257    34.713    27.856
   298.960   302.272     0.348    2.9257    34.713    27.856
   299.060   302.373     0.348    2.9257    34.713    27.856
   299.170   302.485     0.348    2.9257    34.713    27.856
   299.280   302.596     0.359    2.9257    34.700    27.845
   299.390   302.707     0.359    2.9257    34.700    27.845
   299.500   302.819     0.359    2.9257    34.700    27.845
   299.710   303.031     0.359    2.9272    34.719    27.861
   299.820   303.142     0.359    2.9272    34.719    27.861
   299.930   303.254     0.359    2.9272    34.719    27.860
   300.040   303.365     0.359    2.9272    34.719    27.860
   300.260   303.588     0.369    2.9272    34.708    27.851
   300.370   303.699     0.369    2.9272    34.708    27.851
   300.470   303.800     0.369    2.9272    34.708    27.851
   300.580   303.911     0.369    2.9272    34.708    27.851
   300.690   304.023     0.369    2.9272    34.708    27.850
   300.800   304.134     0.369    2.9272    34.708    27.850
   300.910   304.245     0.369    2.9287    34.727    27.866
   301.020   304.357     0.369    2.9272    34.707    27.850
   301.120   304.458     0.369    2.9287    34.727    27.866
   301.230   304.569     0.369    2.9287    34.727    27.866
   301.340   304.680     0.369    2.9287    34.727    27.866
   301.450   304.792     0.369    2.9272    34.707    27.850
   301.560   304.903     0.369    2.9287    34.727    27.866
   301.670   305.014     0.369    2.9287    34.727    27.866
   301.770   305.116     0.369    2.9287    34.727    27.866
   301.880   305.227     0.369    2.9287    34.727    27.866
   302.100   305.449     0.380    2.9287    34.714    27.855
   302.210   305.561     0.380    2.9287    34.714    27.855
   302.320   305.672     0.380    2.9287    34.714    27.855
   302.420   305.773     0.380    2.9287    34.714    27.855
   302.530   305.885     0.380    2.9287    34.714    27.855
   302.640   305.996     0.380    2.9301    34.732    27.870
   302.750   306.107     0.380    2.9287    34.714    27.855
   302.860   306.218     0.380    2.9301    34.732    27.869
   302.970   306.330     0.380    2.9301    34.732    27.869
   303.180   306.542     0.390    2.9301    34.721    27.860
   303.400   306.765     0.390    2.9301    34.720    27.860
   303.510   306.876     0.390    2.9301    34.720    27.860
   303.620   306.987     0.390    2.9301    34.720    27.859
   303.720   307.089     0.390    2.9301    34.720    27.859
   303.830   307.200     0.390    2.9301    34.720    27.859
   303.940   307.311     0.390    2.9301    34.720    27.859
   304.050   307.423     0.390    2.9301    34.720    27.859
   304.160   307.534     0.390    2.9316    34.740    27.875
   304.270   307.645     0.390    2.9316    34.740    27.875
   304.370   307.746     0.390    2.9301    34.720    27.859
   304.480   307.858     0.390    2.9316    34.739    27.875
   304.590   307.969     0.390    2.9301    34.720    27.859
   304.700   308.080     0.390    2.9316    34.739    27.875
   304.810   308.192     0.390    2.9316    34.739    27.875
   304.920   308.303     0.390    2.9316    34.739    27.875
   305.020   308.404     0.390    2.9301    34.719    27.859
   305.130   308.515     0.390    2.9316    34.739    27.875
   305.240   308.627     0.390    2.9316    34.739    27.875
   305.350   308.738     0.390    2.9316    34.739    27.874
   305.460   308.849     0.390    2.9316    34.739    27.874
   305.570   308.961     0.390    2.9316    34.739    27.874
   305.670   309.062     0.390    2.9316    34.739    27.874
   305.780   309.173     0.390    2.9316    34.739    27.874
   305.890   309.284     0.401    2.9316    34.726    27.864
   306.000   309.396     0.401    2.9316    34.726    27.864
   306.110   309.507     0.401    2.9316    34.726    27.863
   306.220   309.618     0.401    2.9316    34.726    27.863
   306.320   309.719     0.401    2.9316    34.726    27.863
   306.430   309.831     0.401    2.9316    34.726    27.863
   306.540   309.942     0.401    2.9316    34.726    27.863
   306.650   310.053     0.401    2.9331    34.745    27.879
   306.760   310.165     0.401    2.9316    34.726    27.863
   306.870   310.276     0.401    2.9331    34.745    27.879
   306.970   310.377     0.401    2.9331    34.745    27.879
   307.080   310.488     0.411    2.9331    34.734    27.869
   307.190   310.600     0.411    2.9331    34.734    27.869
   307.300   310.711     0.411    2.9331    34.734    27.869
   307.410   310.822     0.411    2.9331    34.734    27.869
   307.520   310.934     0.411    2.9331    34.734    27.869
   307.840   311.257     0.411    2.9346    34.753    27.885
   307.950   311.369     0.422    2.9331    34.721    27.858
   308.060   311.480     0.422    2.9346    34.741    27.874
   308.160   311.581     0.422    2.9346    34.741    27.874
   308.380   311.804     0.422    2.9346    34.740    27.874
   308.490   311.915     0.422    2.9346    34.740    27.874
   308.600   312.026     0.422    2.9346    34.740    27.874
   308.710   312.138     0.422    2.9346    34.740    27.874
   308.810   312.239     0.422    2.9346    34.740    27.874
   308.920   312.350     0.432    2.9346    34.729    27.864
   309.030   312.462     0.432    2.9346    34.729    27.864
   309.140   312.573     0.432    2.9346    34.729    27.864
   309.250   312.684     0.432    2.9346    34.729    27.864
   309.360   312.795     0.432    2.9346    34.729    27.864
   309.460   312.897     0.432    2.9360    34.747    27.878
   309.570   313.008     0.432    2.9360    34.747    27.878
   309.680   313.119     0.432    2.9360    34.747    27.878
   309.790   313.231     0.432    2.9360    34.747    27.878
   309.900   313.342     0.432    2.9360    34.747    27.878
   310.010   313.453     0.432    2.9360    34.746    27.878
   310.110   313.554     0.432    2.9360    34.746    27.878
   310.220   313.666     0.432    2.9360    34.746    27.878
   310.330   313.777     0.432    2.9360    34.746    27.878
   310.440   313.888     0.432    2.9360    34.746    27.878
   310.550   314.000     0.432    2.9360    34.746    27.878
   310.660   314.111     0.443    2.9360    34.734    27.867
   310.760   314.212     0.443    2.9360    34.734    27.867
   310.870   314.323     0.443    2.9360    34.734    27.867
   310.980   314.435     0.443    2.9375    34.753    27.883
   311.090   314.546     0.443    2.9360    34.733    27.867
   311.200   314.657     0.443    2.9360    34.733    27.867
   311.310   314.769     0.443    2.9360    34.733    27.867
   311.410   314.870     0.443    2.9360    34.733    27.867
   311.520   314.981     0.443    2.9375    34.753    27.883
   311.630   315.092     0.443    2.9375    34.753    27.883
   311.740   315.204     0.443    2.9375    34.753    27.883
   311.850   315.315     0.443    2.9375    34.753    27.882
   312.060   315.528     0.443    2.9375    34.753    27.882
   312.170   315.639     0.443    2.9375    34.752    27.882
   312.280   315.750     0.443    2.9375    34.752    27.882
   312.390   315.861     0.453    2.9375    34.741    27.873
   312.500   315.973     0.443    2.9375    34.752    27.882
   312.600   316.074     0.453    2.9375    34.741    27.872
   312.710   316.185     0.453    2.9375    34.741    27.872
   312.820   316.297     0.453    2.9375    34.741    27.872
   312.930   316.408     0.453    2.9390    34.760    27.888
   313.040   316.519     0.453    2.9375    34.741    27.872
   313.150   316.630     0.453    2.9390    34.760    27.888
   313.250   316.732     0.453    2.9390    34.760    27.888
   313.360   316.843     0.453    2.9390    34.760    27.888
   313.470   316.954     0.453    2.9390    34.760    27.888
   313.580   317.066     0.453    2.9390    34.760    27.888
   313.690   317.177     0.453    2.9390    34.760    27.888
   313.800   317.288     0.453    2.9390    34.760    27.888
   313.900   317.389     0.464    2.9390    34.747    27.877
   314.010   317.501     0.464    2.9390    34.747    27.877
   314.120   317.612     0.453    2.9390    34.760    27.888
   314.230   317.723     0.464    2.9390    34.747    27.877
   314.340   317.835     0.453    2.9390    34.760    27.887
   314.450   317.946     0.464    2.9390    34.747    27.877
   314.550   318.047     0.464    2.9390    34.747    27.877
   314.660   318.158     0.464    2.9390    34.747    27.877
   314.770   318.270     0.464    2.9390    34.747    27.877
   314.880   318.381     0.464    2.9390    34.747    27.877
   315.200   318.705     0.464    2.9390    34.747    27.876
   315.310   318.816     0.464    2.9390    34.747    27.876
   315.420   318.927     0.464    2.9390    34.746    27.876
   315.530   319.039     0.464    2.9390    34.746    27.876
   315.640   319.150     0.464    2.9390    34.746    27.876
   315.740   319.251     0.464    2.9390    34.746    27.876
   315.850   319.363     0.464    2.9390    34.746    27.876
   315.960   319.474     0.464    2.9405    34.766    27.892
   316.070   319.585     0.464    2.9405    34.766    27.892
   316.180   319.697     0.464    2.9390    34.746    27.876
   316.290   319.808     0.464    2.9390    34.746    27.876
   316.390   319.909     0.464    2.9390    34.746    27.876
   316.500   320.020     0.464    2.9405    34.765    27.892
   316.610   320.132     0.474    2.9405    34.754    27.882
   316.830   320.354     0.464    2.9405    34.765    27.891
   317.040   320.567     0.474    2.9405    34.754    27.882
   317.150   320.678     0.474    2.9405    34.754    27.882
   317.370   320.901     0.474    2.9405    34.754    27.881
   317.480   321.012     0.474    2.9405    34.754    27.881
   317.580   321.113     0.474    2.9405    34.754    27.881
   317.690   321.225     0.474    2.9405    34.754    27.881
   317.800   321.336     0.474    2.9405    34.753    27.881
   317.910   321.447     0.474    2.9405    34.753    27.881
   318.130   321.670     0.474    2.9405    34.753    27.881
   318.230   321.771     0.474    2.9419    34.771    27.896
   318.340   321.882     0.485    2.9419    34.759    27.885
   318.450   321.994     0.474    2.9405    34.753    27.881
   318.560   322.105     0.485    2.9419    34.759    27.885
   318.670   322.216     0.485    2.9419    34.759    27.885
   318.770   322.317     0.485    2.9419    34.759    27.885
   318.880   322.429     0.485    2.9419    34.759    27.885
   318.990   322.540     0.485    2.9419    34.759    27.885
   319.100   322.651     0.495    2.9419    34.747    27.875
   319.210   322.763     0.485    2.9419    34.759    27.885
   319.320   322.874     0.495    2.9419    34.747    27.875
   319.420   322.975     0.495    2.9419    34.747    27.875
   319.530   323.086     0.495    2.9434    34.767    27.891
   319.640   323.198     0.495    2.9434    34.767    27.891
   319.750   323.309     0.495    2.9419    34.747    27.875
   319.860   323.420     0.495    2.9419    34.747    27.875
   319.970   323.532     0.495    2.9419    34.747    27.875
   320.070   323.633     0.495    2.9434    34.766    27.890
   320.180   323.744     0.495    2.9434    34.766    27.890
   320.400   323.967     0.495    2.9434    34.766    27.890
   320.510   324.078     0.495    2.9434    34.766    27.890
   320.610   324.179     0.495    2.9434    34.766    27.890
   320.720   324.291     0.506    2.9434    34.754    27.880
   320.830   324.402     0.495    2.9434    34.766    27.890
   320.940   324.513     0.506    2.9434    34.753    27.879
   321.050   324.625     0.506    2.9434    34.753    27.879
   321.260   324.837     0.506    2.9434    34.753    27.879
   321.370   324.948     0.506    2.9434    34.753    27.879
   321.480   325.060     0.506    2.9434    34.753    27.879
   321.590   325.171     0.506    2.9449    34.773    27.895
   321.810   325.394     0.506    2.9434    34.753    27.879
   321.910   325.495     0.506    2.9449    34.773    27.895
   322.240   325.829     0.506    2.9434    34.753    27.879
   322.350   325.940     0.506    2.9434    34.753    27.879
   322.450   326.041     0.506    2.9449    34.772    27.895
   322.560   326.153     0.506    2.9449    34.772    27.894
   322.670   326.264     0.506    2.9449    34.772    27.894
   322.780   326.375     0.506    2.9449    34.772    27.894
   322.890   326.487     0.506    2.9449    34.772    27.894
   323.100   326.699     0.506    2.9449    34.772    27.894
   323.210   326.810     0.506    2.9449    34.772    27.894
   323.320   326.922     0.506    2.9449    34.772    27.894
   323.430   327.033     0.506    2.9449    34.772    27.894
   323.540   327.144     0.506    2.9449    34.772    27.894
   323.640   327.245     0.506    2.9449    34.771    27.894
   323.860   327.468     0.506    2.9449    34.771    27.894
   323.970   327.579     0.516    2.9449    34.760    27.884
   324.080   327.691     0.506    2.9449    34.771    27.894
   324.190   327.802     0.516    2.9449    34.760    27.884
   324.290   327.903     0.516    2.9449    34.760    27.884
   324.400   328.015     0.516    2.9449    34.760    27.884
   324.730   328.348     0.516    2.9449    34.760    27.884
   324.830   328.450     0.516    2.9449    34.760    27.884
   324.940   328.561     0.516    2.9449    34.759    27.884
   325.050   328.672     0.516    2.9449    34.759    27.884
   325.160   328.784     0.516    2.9463    34.778    27.898
   325.270   328.895     0.516    2.9449    34.759    27.883
   325.380   329.006     0.516    2.9449    34.759    27.883
   325.480   329.107     0.516    2.9449    34.759    27.883
   325.590   329.219     0.516    2.9463    34.777    27.898
   325.700   329.330     0.516    2.9463    34.777    27.898
   325.810   329.441     0.516    2.9463    34.777    27.898
   325.920   329.553     0.516    2.9449    34.759    27.883
   326.020   329.654     0.516    2.9463    34.777    27.898
   326.130   329.765     0.516    2.9463    34.777    27.898
   326.240   329.877     0.516    2.9463    34.777    27.898
   326.350   329.988     0.516    2.9449    34.759    27.883
   326.460   330.099     0.516    2.9463    34.777    27.898
   326.780   330.423     0.516    2.9463    34.777    27.897
   326.890   330.534     0.516    2.9463    34.777    27.897
   327.320   330.969     0.527    2.9463    34.764    27.887
   327.430   331.081     0.527    2.9463    34.764    27.887
   327.540   331.192     0.527    2.9463    34.764    27.887
   327.650   331.303     0.527    2.9463    34.764    27.886
   327.760   331.415     0.527    2.9463    34.764    27.886
   327.860   331.516     0.527    2.9463    34.764    27.886
   327.970   331.627     0.527    2.9463    34.764    27.886
   328.080   331.739     0.527    2.9463    34.763    27.886
   328.190   331.850     0.527    2.9463    34.763    27.886
   328.300   331.961     0.527    2.9463    34.763    27.886
   328.400   332.062     0.527    2.9478    34.783    27.902
   328.510   332.174     0.527    2.9463    34.763    27.886
   328.620   332.285     0.527    2.9463    34.763    27.886
   328.730   332.396     0.527    2.9478    34.783    27.902
   328.840   332.508     0.527    2.9463    34.763    27.886
   328.950   332.619     0.527    2.9478    34.783    27.902
   329.050   332.720     0.527    2.9463    34.763    27.886
   329.160   332.831     0.527    2.9478    34.782    27.902
   329.270   332.943     0.527    2.9478    34.782    27.901
   329.380   333.054     0.537    2.9478    34.771    27.892
   329.490   333.165     0.537    2.9478    34.771    27.892
   329.590   333.267     0.537    2.9478    34.771    27.892
   329.700   333.378     0.537    2.9478    34.771    27.892
   329.810   333.489     0.537    2.9478    34.771    27.892
   329.920   333.601     0.537    2.9478    34.771    27.891
   330.130   333.813     0.537    2.9478    34.771    27.891
   330.350   334.036     0.537    2.9478    34.770    27.891
   330.680   334.370     0.537    2.9493    34.790    27.907
   330.890   334.582     0.537    2.9493    34.790    27.907
   331.000   334.693     0.537    2.9493    34.790    27.907
   331.220   334.916     0.537    2.9493    34.790    27.907
   331.320   335.017     0.547    2.9493    34.778    27.897
   331.430   335.129     0.537    2.9493    34.789    27.907
   331.540   335.240     0.547    2.9493    34.778    27.897
   331.650   335.351     0.537    2.9493    34.789    27.906
   331.760   335.463     0.547    2.9493    34.778    27.897
   331.870   335.574     0.547    2.9493    34.778    27.897
   331.970   335.675     0.537    2.9493    34.789    27.906
   332.080   335.786     0.547    2.9493    34.778    27.897
   332.300   336.009     0.547    2.9493    34.778    27.896
   332.410   336.120     0.547    2.9478    34.758    27.881
   332.510   336.222     0.547    2.9493    34.778    27.896
   332.620   336.333     0.547    2.9493    34.777    27.896
   332.730   336.444     0.547    2.9493    34.777    27.896
   332.840   336.556     0.547    2.9493    34.777    27.896
   332.950   336.667     0.547    2.9493    34.777    27.896
   333.050   336.768     0.547    2.9493    34.777    27.896
   333.160   336.879     0.547    2.9493    34.777    27.896
   333.270   336.991     0.547    2.9493    34.777    27.896
   333.380   337.102     0.547    2.9493    34.777    27.896
   333.490   337.213     0.547    2.9493    34.777    27.896
   333.600   337.325     0.547    2.9493    34.777    27.896
   333.810   337.537     0.547    2.9493    34.777    27.896
   333.920   337.648     0.547    2.9493    34.777    27.896
   334.350   338.084     0.558    2.9508    34.784    27.901
   334.570   338.306     0.558    2.9508    34.783    27.901
   334.680   338.418     0.558    2.9508    34.783    27.900
   334.780   338.519     0.558    2.9508    34.783    27.900
   334.890   338.630     0.558    2.9508    34.783    27.900
   335.000   338.741     0.558    2.9508    34.783    27.900
   335.110   338.853     0.558    2.9508    34.783    27.900
   335.430   339.177     0.558    2.9508    34.783    27.900
   335.540   339.288     0.558    2.9508    34.783    27.900
   335.650   339.399     0.558    2.9522    34.801    27.915
   335.760   339.511     0.558    2.9522    34.801    27.915
   335.870   339.622     0.568    2.9522    34.790    27.905
   335.970   339.723     0.558    2.9522    34.801    27.915
   336.080   339.834     0.568    2.9522    34.790    27.905
   336.190   339.946     0.568    2.9522    34.790    27.905
   336.300   340.057     0.568    2.9522    34.789    27.905
   336.410   340.168     0.568    2.9522    34.789    27.905
   336.510   340.270     0.568    2.9522    34.789    27.905
   336.620   340.381     0.568    2.9522    34.789    27.905
   336.730   340.492     0.568    2.9522    34.789    27.905
   336.840   340.603     0.568    2.9522    34.789    27.904
   336.950   340.715     0.568    2.9522    34.789    27.904
   337.160   340.927     0.568    2.9522    34.789    27.904
   337.270   341.039     0.568    2.9522    34.789    27.904
   337.380   341.150     0.568    2.9522    34.789    27.904
   337.700   341.474     0.568    2.9522    34.789    27.904
   337.810   341.585     0.568    2.9522    34.789    27.904
   337.920   341.696     0.568    2.9522    34.789    27.904
   338.030   341.808     0.579    2.9522    34.776    27.893
